VAMAS Surface Chemical Analysis Standard Data Transfer Format 1988 May 4
Ulvac-Phi,Inc.
Quantes 
XK 
XSu 
3
exported from PHI-MultiPak
 
 
NORM
REGULAR
1 
0
0
0
0
0
1 
Block No.1 
Sample ID : 1
2022 
11 
22 
-1
-1
-1
-1
2
IntensityCalCoeff: 312.723000 1.455000 
0
XPS
Al mono
1486.60
24.020000
2000
800
0.000000
90.000000
FAT
280.000000
5.000000
4.450000
0
100.000000
100.000000
45.000000
270.000000
Sur

-1
Binding Energy
eV
1400.000000
-1.000000
1
Intensity
c/s
pulse counting
0.300000
1
0
3.101349e-003
90
359.993591
0
1401
16.666666
10093.333008
10093.333008
9436.666016
9756.666016
9206.666016
8876.666016
8716.666016
8893.333008
8726.666016
8700.000000
8423.333008
8233.333008
8200.000000
8230.000000
7886.666504
7883.333008
8026.666504
8073.333008
7736.666504
7363.333008
7009.999512
7049.999512
6869.999512
6266.666504
6213.333008
6000.000000
6373.333008
6130.000000
5830.000000
5626.666504
5563.333008
5466.666504
5606.666504
5220.000000
5133.333008
5630.000000
5330.000000
5163.333008
5330.000000
5330.000000
5000.000000
4950.000000
4913.333008
4936.666504
4900.000000
4996.666504
4770.000000
4673.333008
4800.000000
4800.000000
4573.333008
4870.000000
4723.333008
4456.666504
4533.333008
4420.000000
4550.000000
4356.666504
4720.000000
4630.000000
4496.666504
4523.333008
4593.333008
4506.666504
4656.666504
4493.333008
4633.333008
4526.666504
4390.000000
4433.333008
4440.000000
4366.666504
4466.666504
4580.000000
4630.000000
4620.000000
4400.000000
4403.333008
4770.000000
4726.666504
4230.000000
4573.333008
4423.333008
4600.000000
4530.000000
4643.333008
4420.000000
4573.333008
4633.333008
4446.666504
4640.000000
4566.666504
4483.333008
4503.333008
4556.666504
4520.000000
4463.333008
4696.666504
4753.333008
4863.333008
4610.000000
4526.666504
4606.666504
4823.333008
4546.666504
4680.000000
4840.000000
4486.666504
4776.666504
4513.333008
4546.666504
4576.666504
4403.333008
4686.666504
4653.333008
4713.333008
4836.666504
4570.000000
4730.000000
4826.666504
4730.000000
4683.333008
4893.333008
4943.333008
4990.000000
4926.666504
4873.333008
4806.666504
4950.000000
4910.000000
5000.000000
5070.000000
4803.333008
5016.666504
4836.666504
5140.000000
4763.333008
5053.333008
5106.666504
5080.000000
4940.000000
5096.666504
5003.333008
4936.666504
5036.666504
5110.000000
5213.333008
4936.666504
5240.000000
5376.666504
5256.666504
5300.000000
5140.000000
5250.000000
5150.000000
5163.333008
5356.666504
5360.000000
5063.333008
5410.000000
5530.000000
5220.000000
5316.666504
5326.666504
5466.666504
5306.666504
5126.666504
5150.000000
5220.000000
5406.666504
5403.333008
5460.000000
5390.000000
5776.666504
5686.666504
5666.666504
5703.333008
5660.000000
5703.333008
5416.666504
5610.000000
5393.333008
5366.666504
5220.000000
4996.666504
5083.333008
4976.666504
4736.666504
4660.000000
4646.666504
4776.666504
4700.000000
4786.666504
4673.333008
4713.333008
4716.666504
4760.000000
4660.000000
4763.333008
4790.000000
4750.000000
4926.666504
4926.666504
4800.000000
4596.666504
4773.333008
4750.000000
4616.666504
4816.666504
4563.333008
4620.000000
4643.333008
4803.333008
4686.666504
4803.333008
4943.333008
5133.333008
4840.000000
4926.666504
4766.666504
4816.666504
5246.666504
4990.000000
4713.333008
4923.333008
4880.000000
4923.333008
4776.666504
4723.333008
4960.000000
4990.000000
4990.000000
5170.000000
5066.666504
4803.333008
4903.333008
4706.666504
5136.666504
4883.333008
5063.333008
4993.333008
5280.000000
5430.000000
4946.666504
4870.000000
5043.333008
5246.666504
4940.000000
4946.666504
5156.666504
5116.666504
5106.666504
4993.333008
4883.333008
5036.666504
4856.666504
5126.666504
5070.000000
5196.666504
5106.666504
5193.333008
5046.666504
5313.333008
5140.000000
5016.666504
5140.000000
5253.333008
5180.000000
5013.333008
5376.666504
5273.333008
5250.000000
5330.000000
5176.666504
5336.666504
5300.000000
5280.000000
5363.333008
5160.000000
5216.666504
5386.666504
5746.666504
5466.666504
5640.000000
5313.333008
5410.000000
5503.333008
5470.000000
5510.000000
5376.666504
5433.333008
5576.666504
5323.333008
5090.000000
5256.666504
5730.000000
5830.000000
5663.333008
5613.333008
5390.000000
5713.333008
5620.000000
5493.333008
5393.333008
5683.333008
5750.000000
5686.666504
5756.666504
5446.666504
5573.333008
5393.333008
5570.000000
5666.666504
5836.666504
5526.666504
5543.333008
5766.666504
5766.666504
5483.333008
5816.666504
5920.000000
5683.333008
5790.000000
5510.000000
5590.000000
5540.000000
5866.666504
5896.666504
6020.000000
5596.666504
5690.000000
5743.333008
5943.333008
6219.999512
5703.333008
5983.333008
5773.333008
5646.666504
5910.000000
5763.333008
6123.333008
5663.333008
5756.666504
5966.666504
6103.333008
6036.666504
5906.666504
5986.666504
6030.000000
5893.333008
6133.333008
6066.666504
6036.666504
6063.333008
6046.666504
5946.666504
5913.333008
5940.000000
6309.999512
6186.666504
6203.333008
6096.666504
6269.999512
6063.333008
6296.666504
6163.333008
6030.000000
6203.333008
6053.333008
6169.999512
6633.333008
5986.666504
6213.333008
6346.666504
6356.666504
6223.333008
6449.999512
6159.999512
6159.999512
6126.666504
6289.999512
6539.999512
6469.999512
6316.666504
6519.999512
6396.666504
6316.666504
6463.333008
6479.999512
6443.333008
6656.666504
6423.333008
6666.666504
6376.666504
6189.999512
6486.666504
6596.666504
6466.666504
6549.999512
6269.999512
6506.666504
6743.333008
6593.333008
6699.999512
6576.666504
6586.666504
6799.999512
6629.999512
6746.666504
6579.999512
6576.666504
6329.999512
6259.999512
6436.666504
6506.666504
6266.666504
6219.999512
6263.333008
6399.999512
6376.666504
6713.333008
6813.333008
6909.999512
7116.666504
6999.999512
6633.333008
6526.666504
6899.999512
6709.999512
6363.333008
6409.999512
6363.333008
6103.333008
5836.666504
5670.000000
5746.666504
5850.000000
5610.000000
5453.333008
5570.000000
5200.000000
5283.333008
5603.333008
5666.666504
5300.000000
5210.000000
5503.333008
5630.000000
5663.333008
5563.333008
5400.000000
5543.333008
5540.000000
5526.666504
5096.666504
5683.333008
5530.000000
5473.333008
5540.000000
5476.666504
5400.000000
5560.000000
5793.333008
5583.333008
5426.666504
5240.000000
5470.000000
5436.666504
5603.333008
5746.666504
5426.666504
5440.000000
5366.666504
5490.000000
5536.666504
5430.000000
5280.000000
5220.000000
5553.333008
5480.000000
5366.666504
5530.000000
5580.000000
5456.666504
5346.666504
5410.000000
5383.333008
5470.000000
5536.666504
5420.000000
5156.666504
5513.333008
5576.666504
5150.000000
5196.666504
5363.333008
5336.666504
5600.000000
5243.333008
5486.666504
5573.333008
5303.333008
5390.000000
5313.333008
5180.000000
5436.666504
5296.666504
5073.333008
5240.000000
5173.333008
5420.000000
5190.000000
5286.666504
5163.333008
5320.000000
5030.000000
5246.666504
5060.000000
5136.666504
4913.333008
4830.000000
4966.666504
4903.333008
5060.000000
5020.000000
5306.666504
5070.000000
5026.666504
5340.000000
5116.666504
4920.000000
5046.666504
4636.666504
4686.666504
5010.000000
5136.666504
5056.666504
4966.666504
4976.666504
4816.666504
4973.333008
4753.333008
4880.000000
5076.666504
4780.000000
4896.666504
4740.000000
4886.666504
4780.000000
4740.000000
4846.666504
4993.333008
4753.333008
4926.666504
4706.666504
4903.333008
4976.666504
4850.000000
4893.333008
4870.000000
4740.000000
4576.666504
4600.000000
4826.666504
4723.333008
4750.000000
4640.000000
4806.666504
4656.666504
4550.000000
4370.000000
4600.000000
4590.000000
4463.333008
4403.333008
4480.000000
4113.333008
4566.666504
4463.333008
4333.333008
4476.666504
4423.333008
4563.333008
4570.000000
4240.000000
4163.333008
4466.666504
4246.666504
4493.333008
4256.666504
4113.333008
4353.333008
4423.333008
4556.666504
4306.666504
4436.666504
4303.333008
4296.666504
4256.666504
4316.666504
4380.000000
4286.666504
4416.666504
4210.000000
4270.000000
4326.666504
4243.333008
4306.666504
4436.666504
4023.333252
4466.666504
4280.000000
4483.333008
4363.333008
4316.666504
4456.666504
4326.666504
4423.333008
4373.333008
4286.666504
3886.666504
4223.333008
4376.666504
4513.333008
4180.000000
4036.666504
4093.333252
4166.666504
3946.666504
4100.000000
4059.999756
4156.666504
4089.999756
4053.333252
4180.000000
3856.666504
3926.666504
3929.999756
3996.666504
3739.999756
4019.999756
4243.333008
3943.333252
3776.666504
3849.999756
3826.666504
3886.666504
4053.333252
4033.333252
3929.999756
3739.999756
3913.333252
3866.666504
3716.666504
3886.666504
3763.333252
3926.666504
4093.333252
3936.666504
3823.333252
3769.999756
3646.666504
3789.999756
3789.999756
3709.999756
3726.666504
3596.666504
3843.333252
3779.999756
3396.666504
3483.333252
3769.999756
3919.999756
3753.333252
3516.666504
3809.999756
3973.333252
3876.666504
3709.999756
3719.999756
3493.333252
3629.999756
3476.666504
3493.333252
3643.333252
3499.999756
3409.999756
3339.999756
3359.999756
3496.666504
3646.666504
3793.333252
3603.333252
3176.666504
3183.333252
3003.333252
2916.666504
3000.000000
3060.000000
2956.666504
3083.333252
3003.333252
3089.999756
2970.000000
2843.333252
3036.666504
3033.333252
2980.000000
3259.999756
3096.666504
3119.999756
3256.666504
3056.666504
3013.333252
2940.000000
2960.000000
3263.333252
3156.666504
2990.000000
2986.666504
2986.666504
3040.000000
3010.000000
2890.000000
2980.000000
2846.666504
2956.666504
2860.000000
2990.000000
3033.333252
3003.333252
3000.000000
3033.333252
2996.666504
3066.666504
3096.666504
3213.333252
3070.000000
3063.333252
3159.999756
3096.666504
3176.666504
3136.666504
3143.333252
2900.000000
2863.333252
2926.666504
3169.999756
2890.000000
2890.000000
3070.000000
3183.333252
3113.333252
3416.666504
3209.999756
3046.666504
3063.333252
3000.000000
3216.666504
3133.333252
3013.333252
3156.666504
3010.000000
3196.666504
3336.666504
3266.666504
3246.666504
3199.999756
3089.999756
3129.999756
3473.333252
3346.666504
3096.666504
3023.333252
2963.333252
3073.333252
3030.000000
3303.333252
3149.999756
3263.333252
3099.999756
3276.666504
3063.333252
3096.666504
3219.999756
3119.999756
3236.666504
3139.999756
3209.999756
3226.666504
3063.333252
3006.666504
3143.333252
2973.333252
3279.999756
3119.999756
3213.333252
3103.333252
3266.666504
3263.333252
3206.666504
3096.666504
3326.666504
3023.333252
3050.000000
3149.999756
3233.333252
3206.666504
3116.666504
3000.000000
3189.999756
3139.999756
3203.333252
3146.666504
3329.999756
3066.666504
2966.666504
3000.000000
2833.333252
3103.333252
3369.999756
3146.666504
3133.333252
3289.999756
3256.666504
3623.333252
3070.000000
3186.666504
2966.666504
3156.666504
3283.333252
3359.999756
3266.666504
3123.333252
3153.333252
2936.666504
3050.000000
3036.666504
2963.333252
3116.666504
3243.333252
3259.999756
3063.333252
3256.666504
3223.333252
3233.333252
3196.666504
3503.333252
3173.333252
3293.333252
3016.666504
3076.666504
3133.333252
2866.666504
3020.000000
2903.333252
3036.666504
2846.666504
2663.333252
2593.333252
2480.000000
2366.666504
2306.666504
2326.666504
2343.333252
2170.000000
2326.666504
2506.666504
3929.999756
6956.666504
8436.666016
6120.000000
3999.999756
3013.333252
2313.333252
1979.999878
2023.333252
1959.999878
1916.666626
1819.999878
2009.999878
1939.999878
1813.333252
1856.666626
1893.333252
1903.333252
2070.000000
2166.666504
1766.666626
1936.666626
1876.666626
1899.999878
2033.333252
1959.999878
1993.333252
2103.333252
2029.999878
2120.000000
1996.666626
1916.666626
2023.333252
2043.333252
2043.333252
1876.666626
1779.999878
1933.333252
2066.666504
1933.333252
1993.333252
2093.333252
2126.666504
2026.666626
1989.999878
2283.333252
1899.999878
1896.666626
1826.666626
1949.999878
2003.333252
2029.999878
2140.000000
2013.333252
2086.666504
1983.333252
2133.333252
2023.333252
2003.333252
1943.333252
1916.666626
1939.999878
2183.333252
2140.000000
1916.666626
2080.000000
1966.666626
1953.333252
2003.333252
1953.333252
2126.666504
2223.333252
2093.333252
2263.333252
2116.666504
2076.666504
2116.666504
2043.333252
2143.333252
2100.000000
2039.999878
2210.000000
2006.666626
1979.999878
1896.666626
2153.333252
2090.000000
2146.666504
2173.333252
2046.666626
1943.333252
2039.999878
2073.333252
1746.666626
2230.000000
2250.000000
2056.666504
2036.666626
1973.333252
2136.666504
2236.666504
2126.666504
2130.000000
2050.000000
1973.333252
2076.666504
2100.000000
2076.666504
2036.666626
1979.999878
2110.000000
2143.333252
2140.000000
2190.000000
2190.000000
2196.666504
1983.333252
2140.000000
2250.000000
2266.666504
1993.333252
2050.000000
2166.666504
2166.666504
2180.000000
2246.666504
2143.333252
2213.333252
2430.000000
2213.333252
2250.000000
2280.000000
2260.000000
2213.333252
2043.333252
2136.666504
2220.000000
2080.000000
1963.333252
2256.666504
2096.666504
2093.333252
2316.666504
2183.333252
2086.666504
2026.666626
2140.000000
2060.000000
2250.000000
2213.333252
2246.666504
2166.666504
2206.666504
2080.000000
2176.666504
2063.333252
2143.333252
2173.333252
2190.000000
2136.666504
2226.666504
2480.000000
2233.333252
1979.999878
2243.333252
2140.000000
2043.333252
2193.333252
2046.666626
2223.333252
2150.000000
2190.000000
2226.666504
2180.000000
2113.333252
2240.000000
2293.333252
2283.333252
2153.333252
2116.666504
2226.666504
2190.000000
2533.333252
2303.333252
2430.000000
2450.000000
2286.666504
2276.666504
2233.333252
2253.333252
2256.666504
2093.333252
2256.666504
2306.666504
2403.333252
2210.000000
2160.000000
2300.000000
2096.666504
2253.333252
2290.000000
2383.333252
2326.666504
2320.000000
2396.666504
2293.333252
2403.333252
2226.666504
2323.333252
2263.333252
2286.666504
2313.333252
2340.000000
2343.333252
2153.333252
2486.666504
2460.000000
2443.333252
2396.666504
2423.333252
2493.333252
2363.333252
2356.666504
2413.333252
2426.666504
2513.333252
2626.666504
2513.333252
2510.000000
2636.666504
2553.333252
2346.666504
2493.333252
2233.333252
2100.000000
2026.666626
1759.999878
1753.333252
1629.999878
1523.333252
1360.000000
1213.333252
1140.000000
1066.666626
1290.000000
2166.666504
2506.666504
2530.000000
4956.666504
9650.000000
9970.000000
3283.333252
1156.666626
1026.666626
939.999939
896.666626
923.333313
879.999939
966.666626
806.666626
959.999939
883.333313
929.999939
879.999939
819.999939
799.999939
846.666626
883.333313
849.999939
883.333313
746.666626
849.999939
846.666626
726.666626
873.333313
776.666626
753.333313
876.666626
873.333313
743.333313
726.666626
786.666626
856.666626
746.666626
789.999939
796.666626
913.333313
839.999939
796.666626
853.333313
773.333313
836.666626
793.333313
903.333313
879.999939
853.333313
803.333313
793.333313
829.999939
736.666626
846.666626
843.333313
909.999939
863.333313
746.666626
833.333313
813.333313
746.666626
713.333313
706.666626
836.666626
873.333313
690.000000
779.999939
873.333313
799.999939
786.666626
773.333313
706.666626
809.999939
736.666626
789.999939
833.333313
879.999939
716.666626
733.333313
743.333313
686.666626
833.333313
693.333313
683.333313
796.666626
869.999939
706.666626
833.333313
779.999939
766.666626
799.999939
706.666626
760.000000
690.000000
686.666626
773.333313
786.666626
849.999939
663.333313
789.999939
763.333313
746.666626
746.666626
723.333313
743.333313
706.666626
766.666626
723.333313
696.666626
686.666626
713.333313
683.333313
799.999939
736.666626
723.333313
773.333313
776.666626
700.000000
823.333313
826.666626
763.333313
756.666626
773.333313
783.333313
869.999939
703.333313
616.666626
713.333313
723.333313
740.000000
626.666626
683.333313
923.333313
1026.666626
1233.333252
1009.999939
856.666626
703.333313
769.999939
736.666626
543.333313
730.000000
733.333313
716.666626
710.000000
616.666626
570.000000
693.333313
596.666626
633.333313
616.666626
600.000000
710.000000
580.000000
586.666626
663.333313
746.666626
626.666626
716.666626
710.000000
636.666626
656.666626
590.000000
700.000000
673.333313
643.333313
620.000000
646.666626
556.666626
486.666656
613.333313
570.000000
646.666626
643.333313
613.333313
573.333313
520.000000
533.333313
543.333313
620.000000
650.000000
563.333313
606.666626
670.000000
886.666626
1060.000000
999.999939
690.000000
556.666626
520.000000
566.666626
573.333313
516.666626
603.333313
550.000000
593.333313
469.999969
506.666656
459.999969
483.333313
496.666656
473.333313
489.999969
443.333313
479.999969
433.333313
476.666656
449.999969
486.666656
429.999969
370.000000
416.666656
453.333313
466.666656
499.999969
389.999969
353.333313
306.666656
370.000000
326.666656
413.333313
426.666656
350.000000
416.666656
326.666656
356.666656
350.000000
413.333313
406.666656
496.666656
476.666656
533.333313
613.333313
406.666656
330.000000
256.666656
213.333328
280.000000
223.333328
216.666656
246.666656
246.666656
199.999985
196.666656
190.000000
253.333328
196.666656
253.333328
183.333328
173.333328
173.333328
206.666656
166.666656
206.666656
166.666656
239.999985
190.000000
233.333328
229.999985
263.333313
263.333313
323.333313
286.666656
266.666656
239.999985
150.000000
173.333328
199.999985
203.333328
183.333328
209.999985
243.333328
223.333328
176.666656
163.333328
150.000000
156.666656
163.333328
136.666656
143.333328
183.333328
199.999985
209.999985
130.000000
80.000000
23.333332
16.666666
end of experiment
