VAMAS Surface Chemical Analysis Standard Data Transfer Format 1988 May 4
Ulvac-Phi,Inc.
Quantes 
XK 
XSu 
3
exported from PHI-MultiPak
 
 
NORM
REGULAR
1 
0
0
0
0
0
1 
Block No.1 
Sample ID : 1
2022 
11 
22 
-1
-1
-1
-1
2
IntensityCalCoeff: 312.723000 1.455000 
0
XPS
Al mono
1486.60
24.020000
2000
800
0.000000
90.000000
FAT
280.000000
5.000000
4.450000
0
100.000000
100.000000
45.000000
270.000000
Sur

-1
Binding Energy
eV
1400.000000
-1.000000
1
Intensity
c/s
pulse counting
0.300000
1
0
3.101349e-003
90
359.993591
0
1401
49.999996
16573.332031
16573.332031
16253.333008
15913.333008
15553.333008
15336.666016
15239.999023
15389.999023
15026.666016
14749.999023
14943.333008
14006.666016
14366.666016
14206.666016
13743.333008
13623.333008
12909.999023
12699.999023
12953.333008
12643.333008
11983.333008
12280.000000
11653.333008
11723.333008
11303.333008
11120.000000
11233.333008
10800.000000
10646.666016
10363.333008
10336.666016
9883.333008
9840.000000
9960.000000
9740.000000
9863.333008
9323.333008
9486.666016
9510.000000
9343.333008
8940.000000
9466.666016
8923.333008
8923.333008
8800.000000
8986.666016
8946.666016
9156.666016
8820.000000
8686.666016
8830.000000
8753.333008
8900.000000
8836.666016
8746.666016
8390.000000
8550.000000
8696.666016
8773.333008
8570.000000
8540.000000
8440.000000
8700.000000
8550.000000
8313.333008
8576.666016
8169.999512
8690.000000
8513.333008
8693.333008
8643.333008
8620.000000
8310.000000
8813.333008
8353.333008
8763.333008
8340.000000
8416.666016
8156.666504
8536.666016
8306.666016
8366.666016
8556.666016
8306.666016
8520.000000
8590.000000
8263.333008
8203.333008
8620.000000
8556.666016
8320.000000
8290.000000
8300.000000
8566.666016
8280.000000
8426.666016
8676.666016
8386.666016
8740.000000
8103.333008
8370.000000
8323.333008
8836.666016
8653.333008
8743.333008
8670.000000
8636.666016
8823.333008
8840.000000
8670.000000
8850.000000
8746.666016
8866.666016
8660.000000
8773.333008
8800.000000
8716.666016
8810.000000
8640.000000
8516.666016
9000.000000
8983.333008
8490.000000
8836.666016
8533.333008
8660.000000
8816.666016
9156.666016
8656.666016
8930.000000
8783.333008
8850.000000
8436.666016
8800.000000
8976.666016
8976.666016
9096.666016
9056.666016
9113.333008
8960.000000
9196.666016
9116.666016
8963.333008
9280.000000
9130.000000
9563.333008
8980.000000
9006.666016
9086.666016
9266.666016
9493.333008
9086.666016
9380.000000
9113.333008
8923.333008
9416.666016
9526.666016
9263.333008
9383.333008
9366.666016
9163.333008
9176.666016
9006.666016
9440.000000
9280.000000
9313.333008
9420.000000
9320.000000
9476.666016
9373.333008
9563.333008
9640.000000
10113.333008
9866.666016
9833.333008
9986.666016
10003.333008
9993.333008
9980.000000
9850.000000
9760.000000
9783.333008
9770.000000
9550.000000
9580.000000
9150.000000
9213.333008
9233.333008
8916.666016
9093.333008
9003.333008
9150.000000
9356.666016
9003.333008
9043.333008
9066.666016
9103.333008
9056.666016
9346.666016
9123.333008
9116.666016
9006.666016
8970.000000
9090.000000
9003.333008
9046.666016
9050.000000
9590.000000
9593.333008
9133.333008
9173.333008
8966.666016
9196.666016
8976.666016
9220.000000
9273.333008
9176.666016
9263.333008
9043.333008
9360.000000
8993.333008
9273.333008
9440.000000
9426.666016
9506.666016
9136.666016
9440.000000
9323.333008
9380.000000
9103.333008
9550.000000
9513.333008
9150.000000
9513.333008
9560.000000
9633.333008
9236.666016
9470.000000
9520.000000
9673.333008
9226.666016
9846.666016
9366.666016
9513.333008
9536.666016
9766.666016
9593.333008
9840.000000
9770.000000
9403.333008
9886.666016
9486.666016
9630.000000
9660.000000
10096.666016
9466.666016
9810.000000
10043.333008
10093.333008
9893.333008
9833.333008
9846.666016
9940.000000
9996.666016
10230.000000
9853.333008
9830.000000
10003.333008
10356.666016
9900.000000
9623.333008
10043.333008
9830.000000
9636.666016
9576.666016
9890.000000
9943.333008
10300.000000
10276.666016
9930.000000
10473.333008
10246.666016
10710.000000
10096.666016
10333.333008
10143.333008
10283.333008
10320.000000
10203.333008
10070.000000
10283.333008
10130.000000
10560.000000
10520.000000
10383.333008
10200.000000
10393.333008
10470.000000
10640.000000
10256.666016
10373.333008
10513.333008
10593.333008
10290.000000
10386.666016
10403.333008
10570.000000
10400.000000
10426.666016
10783.333008
10613.333008
10540.000000
10676.666016
10893.333008
10506.666016
10856.666016
10816.666016
10853.333008
10726.666016
10600.000000
10733.333008
10780.000000
10516.666016
10703.333008
10523.333008
10926.666016
10833.333008
10990.000000
10906.666016
10706.666016
10706.666016
11203.333008
11086.666016
11180.000000
10730.000000
11353.333008
11060.000000
11096.666016
11310.000000
11163.333008
11436.666016
11143.333008
10880.000000
11103.333008
11150.000000
11066.666016
11316.666016
11030.000000
11340.000000
11653.333008
11283.333008
11336.666016
11950.000000
11433.333008
11343.333008
11640.000000
11870.000000
11313.333008
11666.666016
11590.000000
11546.666016
11676.666016
11600.000000
11770.000000
11466.666016
11396.666016
11540.000000
11503.333008
11216.666016
11996.666016
11776.666016
11856.666016
11753.333008
11866.666016
11733.333008
11753.333008
11460.000000
12093.333008
11520.000000
12363.333008
12200.000000
11943.333008
11886.666016
11936.666016
11796.666016
11883.333008
11943.333008
12066.666016
11680.000000
12636.666016
12100.000000
12213.333008
12026.666016
12160.000000
11986.666016
11923.333008
12023.333008
11963.333008
11770.000000
12130.000000
12479.999023
12133.333008
12053.333008
12166.666016
12293.333008
12153.333008
12116.666016
12376.666016
12353.333008
12210.000000
11943.333008
12250.000000
11843.333008
12086.666016
12126.666016
11916.666016
11713.333008
11976.666016
12203.333008
12333.333008
12010.000000
12106.666016
12443.333008
12599.999023
12696.666016
12513.333008
12589.999023
13009.999023
12586.666016
12270.000000
12303.333008
12583.333008
11783.333008
11743.333008
11583.333008
11423.333008
11466.666016
11023.333008
11373.333008
11603.333008
10790.000000
10966.666016
11380.000000
11240.000000
11036.666016
10943.333008
11093.333008
10546.666016
11193.333008
11253.333008
11400.000000
11253.333008
11246.666016
11176.666016
10956.666016
11320.000000
11256.666016
11466.666016
11376.666016
11750.000000
11453.333008
11190.000000
11470.000000
11226.666016
11463.333008
11230.000000
11310.000000
11080.000000
11123.333008
11443.333008
10963.333008
11106.666016
11540.000000
10983.333008
11150.000000
11540.000000
11403.333008
11520.000000
11500.000000
11076.666016
11283.333008
10936.666016
11193.333008
11130.000000
11466.666016
11283.333008
11236.666016
11090.000000
10746.666016
10850.000000
11260.000000
11253.333008
11116.666016
11256.666016
10993.333008
11106.666016
11343.333008
10940.000000
11273.333008
11436.666016
11073.333008
10983.333008
11426.666016
10826.666016
11250.000000
10783.333008
10763.333008
10930.000000
11090.000000
11016.666016
10683.333008
11033.333008
10720.000000
10660.000000
10606.666016
10116.666016
10416.666016
10200.000000
10226.666016
10556.666016
10203.333008
10293.333008
9950.000000
9936.666016
10130.000000
10280.000000
10116.666016
9530.000000
9800.000000
10026.666016
9730.000000
9640.000000
9546.666016
9916.666016
9663.333008
10140.000000
10030.000000
10093.333008
10226.666016
9820.000000
10036.666016
9650.000000
9986.666016
9426.666016
9660.000000
10003.333008
9646.666016
9490.000000
9636.666016
9576.666016
9810.000000
9803.333008
9556.666016
9546.666016
9806.666016
9680.000000
9936.666016
9470.000000
9576.666016
9270.000000
9576.666016
9276.666016
9363.333008
9146.666016
9240.000000
9216.666016
8943.333008
9153.333008
9000.000000
8940.000000
8643.333008
8736.666016
8370.000000
8176.666504
8116.666504
7869.999512
8189.999512
7663.333008
8226.666016
8173.333008
8206.666016
8233.333008
7813.333008
8223.333008
8183.333008
7643.333008
8139.999512
8260.000000
7803.333008
8129.999512
7963.333008
8049.999512
8023.333008
8123.333008
7936.666504
8033.333008
7693.333008
7889.999512
7819.999512
8223.333008
8059.999512
7689.999512
8006.666504
7923.333008
7773.333008
8043.333008
7606.666504
8183.333008
8139.999512
7869.999512
8036.666504
8176.666504
8303.333008
7873.333008
7893.333008
8069.999512
8366.666016
8253.333008
8230.000000
7913.333008
8063.333008
7673.333008
7829.999512
7266.666504
7206.666504
7133.333008
7503.333008
7303.333008
7359.999512
7319.999512
6919.999512
7509.999512
7233.333008
7046.666504
7403.333008
7146.666504
6856.666504
7206.666504
7299.999512
7056.666504
7076.666504
6836.666504
6739.999512
6956.666504
6653.333008
6729.999512
7216.666504
6996.666504
6369.999512
6839.999512
7036.666504
6969.999512
6549.999512
6859.999512
6886.666504
6639.999512
6783.333008
7009.999512
7016.666504
6903.333008
6713.333008
6713.333008
6503.333008
6526.666504
6886.666504
6466.666504
6359.999512
6293.333008
6553.333008
6539.999512
6633.333008
6606.666504
6293.333008
6293.333008
6653.333008
6566.666504
7036.666504
6793.333008
6623.333008
6396.666504
6183.333008
5756.666504
5566.666504
5820.000000
5683.333008
5586.666504
5546.666504
5460.000000
5493.333008
6073.333008
6506.666504
6963.333008
6896.666504
5250.000000
4106.666504
3769.999756
3829.999756
3769.999756
3459.999756
3519.999756
3593.333252
3553.333252
3579.999756
3539.999756
3649.999756
3669.999756
3539.999756
3659.999756
3503.333252
3619.999756
3879.999756
3749.999756
3523.333252
3616.666504
3659.999756
3573.333252
3686.666504
3439.999756
3676.666504
3576.666504
3663.333252
3623.333252
3613.333252
3489.999756
3643.333252
3273.333252
3369.999756
3553.333252
3499.999756
3423.333252
3626.666504
3363.333252
3489.999756
3826.666504
3469.999756
3496.666504
3649.999756
3559.999756
3459.999756
3496.666504
3969.999756
3729.999756
3493.333252
3656.666504
3853.333252
3746.666504
3633.333252
3753.333252
3816.666504
3793.333252
3689.999756
3766.666504
3493.333252
3579.999756
3569.999756
3619.999756
3626.666504
3776.666504
3806.666504
3463.333252
3459.999756
3469.999756
3663.333252
3776.666504
3639.999756
3523.333252
3749.999756
3676.666504
3823.333252
3633.333252
3769.999756
3683.333252
3596.666504
3676.666504
3646.666504
3619.999756
3719.999756
3819.999756
3713.333252
3499.999756
3939.999756
3879.999756
3686.666504
3756.666504
3606.666504
3419.999756
3906.666504
3833.333252
3786.666504
3703.333252
3749.999756
3679.999756
3586.666504
3703.333252
3689.999756
3709.999756
3396.666504
3863.333252
3783.333252
3803.333252
3619.999756
3653.333252
3756.666504
3719.999756
3889.999756
3666.666504
3673.333252
3426.666504
3573.333252
3713.333252
3833.333252
3603.333252
3793.333252
3699.999756
3643.333252
3639.999756
3853.333252
3749.999756
3469.999756
3656.666504
3769.999756
3603.333252
3679.999756
3826.666504
3573.333252
3523.333252
3726.666504
3756.666504
3623.333252
3826.666504
3629.999756
3709.999756
3863.333252
3706.666504
3763.333252
3333.333252
3599.999756
3636.666504
3493.333252
3446.666504
3633.333252
3663.333252
3853.333252
3713.333252
3799.999756
3799.999756
3819.999756
3986.666504
3799.999756
3639.999756
3606.666504
3713.333252
3523.333252
3529.999756
3599.999756
3683.333252
3539.999756
3229.999756
3193.333252
3153.333252
3073.333252
2986.666504
2640.000000
2706.666504
2670.000000
2603.333252
2686.666504
3129.999756
4303.333008
6689.999512
7679.999512
7906.666504
7259.999512
5180.000000
2710.000000
2130.000000
2193.333252
2333.333252
2009.999878
1906.666626
2060.000000
2043.333252
2066.666504
2039.999878
1916.666626
1843.333252
2133.333252
1983.333252
1989.999878
1963.333252
1976.666626
1909.999878
1859.999878
1913.333252
1849.999878
1966.666626
1916.666626
1973.333252
1853.333252
1979.999878
2063.333252
2160.000000
1923.333252
1859.999878
1893.333252
1856.666626
1846.666626
1929.999878
2003.333252
2060.000000
1933.333252
2013.333252
2056.666504
1929.999878
1956.666626
1889.999878
2100.000000
2036.666626
2136.666504
1979.999878
2023.333252
2103.333252
2036.666626
2056.666504
1986.666626
2039.999878
1939.999878
1996.666626
1919.999878
1903.333252
2006.666626
2046.666626
2120.000000
1886.666626
2023.333252
1986.666626
2036.666626
2216.666504
2270.000000
2093.333252
1929.999878
2146.666504
2203.333252
2173.333252
2033.333252
1959.999878
2033.333252
1906.666626
2133.333252
2153.333252
2116.666504
2123.333252
1943.333252
2046.666626
2006.666626
2056.666504
2106.666504
2173.333252
2036.666626
2013.333252
2186.666504
1996.666626
2143.333252
2029.999878
2260.000000
2283.333252
2166.666504
2096.666504
2163.333252
1969.999878
2056.666504
2013.333252
2336.666504
2176.666504
2036.666626
2073.333252
1983.333252
2073.333252
2130.000000
2200.000000
2130.000000
2293.333252
2343.333252
2143.333252
2150.000000
2070.000000
2213.333252
2206.666504
2130.000000
2093.333252
1933.333252
2173.333252
2060.000000
2083.333252
2150.000000
2080.000000
2113.333252
2150.000000
2296.666504
2236.666504
2346.666504
2360.000000
2153.333252
2153.333252
2173.333252
1926.666626
2240.000000
2150.000000
2173.333252
2233.333252
2320.000000
2196.666504
2130.000000
2293.333252
2146.666504
2160.000000
2206.666504
2223.333252
2243.333252
2250.000000
2276.666504
2260.000000
2136.666504
2130.000000
2223.333252
2280.000000
2283.333252
2416.666504
2330.000000
2370.000000
2133.333252
2226.666504
2220.000000
2463.333252
2146.666504
2203.333252
2203.333252
2283.333252
2100.000000
2223.333252
2310.000000
2290.000000
2256.666504
2473.333252
2300.000000
2300.000000
2313.333252
2203.333252
2336.666504
2293.333252
2413.333252
2290.000000
2350.000000
2416.666504
2303.333252
2476.666504
2450.000000
2370.000000
2420.000000
2483.333252
2463.333252
2293.333252
2540.000000
2340.000000
2556.666504
2516.666504
2496.666504
2503.333252
2556.666504
2686.666504
2456.666504
2526.666504
2573.333252
2470.000000
2506.666504
2513.333252
2400.000000
2346.666504
2413.333252
2516.666504
2660.000000
2450.000000
2470.000000
2506.666504
2620.000000
2370.000000
2396.666504
2556.666504
2446.666504
2600.000000
2723.333252
2480.000000
2736.666504
2773.333252
2753.333252
2720.000000
2590.000000
2706.666504
2706.666504
2716.666504
2480.000000
2426.666504
2416.666504
2360.000000
2420.000000
2123.333252
1866.666626
1869.999878
1913.333252
1523.333252
1733.333252
1879.999878
1913.333252
2593.333252
2966.666504
3046.666504
5263.333008
9666.666016
8696.666016
3539.999756
1809.999878
1613.333252
1573.333252
1573.333252
1493.333252
1470.000000
1476.666626
1510.000000
1440.000000
1330.000000
1440.000000
1393.333252
1530.000000
1599.999878
1500.000000
1423.333252
1460.000000
1466.666626
1549.999878
1383.333252
1410.000000
1413.333252
1300.000000
1513.333252
1606.666626
1423.333252
1569.999878
1546.666626
1583.333252
1530.000000
1506.666626
1366.666626
1553.333252
1480.000000
1460.000000
1386.666626
1653.333252
1539.999878
1393.333252
1480.000000
1569.999878
1390.000000
1390.000000
1250.000000
1476.666626
1403.333252
1453.333252
1386.666626
1496.666626
1476.666626
1513.333252
1510.000000
1520.000000
1506.666626
1493.333252
1549.999878
1523.333252
1539.999878
1426.666626
1400.000000
1523.333252
1350.000000
1493.333252
1456.666626
1363.333252
1453.333252
1413.333252
1573.333252
1513.333252
1410.000000
1430.000000
1480.000000
1460.000000
1403.333252
1473.333252
1619.999878
1473.333252
1390.000000
1456.666626
1530.000000
1376.666626
1446.666626
1460.000000
1426.666626
1490.000000
1386.666626
1450.000000
1406.666626
1230.000000
1380.000000
1343.333252
1480.000000
1363.333252
1383.333252
1473.333252
1363.333252
1250.000000
1400.000000
1423.333252
1410.000000
1283.333252
1483.333252
1513.333252
1370.000000
1470.000000
1440.000000
1390.000000
1380.000000
1573.333252
1526.666626
1480.000000
1483.333252
1400.000000
1466.666626
1566.666626
1416.666626
1473.333252
1310.000000
1376.666626
1559.999878
1360.000000
1410.000000
1330.000000
1320.000000
1380.000000
1280.000000
1283.333252
1436.666626
1423.333252
1616.666626
1713.333252
1443.333252
1483.333252
1466.666626
1423.333252
1313.333252
1440.000000
1316.666626
1306.666626
1266.666626
1236.666626
1296.666626
1396.666626
1340.000000
1373.333252
1333.333252
1443.333252
1330.000000
1310.000000
1280.000000
1373.333252
1490.000000
1326.666626
1233.333252
1310.000000
1260.000000
1390.000000
1263.333252
1303.333252
1253.333252
1253.333252
1386.666626
1310.000000
1320.000000
1353.333252
1370.000000
1326.666626
1353.333252
1296.666626
1243.333252
1266.666626
1243.333252
1340.000000
1246.666626
1180.000000
1153.333252
1206.666626
1196.666626
1273.333252
1403.333252
1510.000000
1446.666626
1350.000000
1270.000000
1353.333252
1050.000000
1316.666626
1300.000000
1293.333252
1490.000000
1340.000000
1150.000000
1070.000000
1076.666626
983.333313
1009.999939
1100.000000
1080.000000
919.999939
1156.666626
1120.000000
1096.666626
1009.999939
989.999939
976.666626
913.333313
946.666626
926.666626
969.999939
889.999939
979.999939
926.666626
819.999939
813.333313
803.333313
846.666626
703.333313
769.999939
676.666626
813.333313
806.666626
856.666626
789.999939
856.666626
1070.000000
1220.000000
1629.999878
1536.666626
1100.000000
560.000000
380.000000
300.000000
376.666656
346.666656
393.333313
373.333313
346.666656
306.666656
350.000000
280.000000
266.666656
303.333313
336.666656
406.666656
260.000000
326.666656
290.000000
253.333328
296.666656
246.666656
296.666656
303.333313
306.666656
366.666656
300.000000
353.333313
310.000000
363.333313
316.666656
399.999969
449.999969
336.666656
356.666656
316.666656
276.666656
303.333313
249.999985
216.666656
236.666656
276.666656
219.999985
216.666656
239.999985
263.333313
293.333313
306.666656
283.333313
336.666656
236.666656
176.666656
176.666656
49.999996
end of experiment
