VAMAS Surface Chemical Analysis Standard Data Transfer Format 1988 May 4
Ulvac-Phi,Inc.
Quantes 
XK 
XSu 
3
exported from PHI-MultiPak
 
 
NORM
REGULAR
1 
0
0
0
0
0
1 
Block No.1 
Sample ID : 1
2022 
11 
22 
-1
-1
-1
-1
2
IntensityCalCoeff: 312.723000 1.455000 
0
XPS
Al mono
1486.60
24.020000
2000
800
0.000000
90.000000
FAT
280.000000
5.000000
4.450000
0
100.000000
100.000000
45.000000
270.000000
Sur

-1
Binding Energy
eV
1400.000000
-1.000000
1
Intensity
c/s
pulse counting
0.300000
1
0
3.101349e-003
90
359.993591
0
1401
49.999996
16029.999023
16029.999023
15026.666016
15406.666016
15333.333008
14889.999023
14369.999023
14263.333008
14309.999023
14016.666016
14553.333008
13746.666016
13706.666016
13126.666016
13493.333008
13133.333008
13136.666016
12849.999023
12559.999023
12436.666016
12173.333008
11760.000000
11170.000000
11313.333008
10920.000000
10676.666016
10430.000000
10050.000000
9893.333008
9733.333008
9800.000000
9336.666016
9693.333008
9276.666016
9423.333008
9700.000000
9173.333008
8720.000000
8856.666016
8836.666016
8450.000000
8543.333008
8680.000000
8540.000000
8206.666016
8460.000000
8656.666016
8490.000000
8610.000000
8480.000000
8240.000000
8123.333008
8330.000000
8246.666016
8323.333008
7939.999512
8093.333008
8420.000000
7933.333008
8186.666504
7899.999512
8123.333008
7883.333008
8360.000000
7836.666504
7786.666504
8183.333008
8240.000000
8129.999512
7819.999512
7939.999512
8266.666016
8233.333008
8063.333008
8089.999512
7956.666504
8073.333008
7803.333008
7593.333008
7976.666504
8093.333008
8113.333008
7936.666504
7609.999512
7876.666504
8156.666504
8176.666504
8246.666016
7923.333008
8186.666504
7916.666504
8416.666016
8626.666016
8383.333008
7986.666504
8313.333008
8470.000000
8166.666504
7993.333008
8240.000000
8253.333008
7959.999512
8026.666504
8483.333008
8333.333008
8330.000000
8026.666504
8079.999512
8093.333008
7879.999512
8416.666016
7989.999512
8380.000000
8270.000000
8139.999512
8396.666016
8233.333008
8139.999512
8260.000000
8383.333008
8310.000000
8420.000000
8193.333008
8443.333008
8483.333008
8196.666016
8523.333008
8700.000000
8540.000000
8356.666016
8683.333008
8136.666504
8476.666016
8703.333008
8546.666016
8460.000000
8763.333008
8700.000000
8570.000000
8159.999512
8513.333008
8403.333008
8633.333008
8503.333008
8590.000000
8550.000000
8336.666016
8726.666016
8996.666016
8670.000000
8666.666016
8973.333008
8636.666016
8890.000000
9100.000000
8983.333008
8876.666016
8876.666016
9346.666016
9153.333008
9306.666016
9003.333008
9243.333008
9313.333008
9130.000000
8930.000000
8780.000000
9166.666016
9440.000000
9010.000000
9033.333008
9293.333008
9346.666016
9266.666016
9646.666016
9393.333008
9660.000000
9473.333008
9330.000000
9183.333008
9416.666016
9556.666016
9040.000000
8976.666016
8960.000000
9156.666016
8903.333008
8530.000000
8426.666016
8216.666016
8583.333008
8653.333008
8276.666016
8816.666016
8643.333008
8453.333008
8600.000000
8486.666016
8903.333008
8763.333008
8586.666016
8730.000000
8660.000000
8586.666016
8646.666016
8683.333008
8550.000000
8326.666016
8850.000000
8826.666016
8610.000000
8273.333008
8633.333008
8770.000000
8703.333008
8870.000000
8590.000000
8496.666016
8550.000000
8653.333008
8860.000000
8680.000000
8966.666016
9270.000000
8820.000000
8643.333008
9243.333008
9090.000000
8933.333008
8776.666016
8903.333008
8886.666016
9296.666016
8976.666016
8876.666016
9243.333008
8936.666016
9100.000000
9226.666016
9256.666016
8716.666016
8933.333008
8923.333008
9013.333008
9123.333008
9226.666016
9230.000000
9130.000000
9216.666016
9230.000000
9433.333008
9033.333008
9093.333008
9260.000000
9613.333008
9550.000000
9366.666016
9216.666016
9203.333008
9336.666016
9453.333008
8993.333008
9246.666016
9633.333008
9323.333008
9283.333008
9266.666016
9313.333008
9386.666016
9526.666016
9646.666016
9493.333008
9433.333008
9886.666016
9620.000000
9630.000000
9953.333008
10076.666016
9210.000000
9603.333008
9546.666016
9520.000000
9583.333008
9310.000000
9373.333008
9686.666016
9810.000000
9640.000000
10000.000000
10063.333008
9860.000000
9646.666016
9906.666016
9836.666016
9756.666016
9813.333008
10263.333008
9680.000000
9640.000000
9763.333008
9790.000000
9960.000000
10126.666016
9830.000000
9916.666016
9920.000000
10196.666016
9983.333008
10106.666016
9976.666016
9953.333008
10156.666016
10370.000000
10250.000000
10416.666016
9883.333008
10303.333008
10310.000000
10300.000000
10050.000000
10210.000000
10296.666016
10450.000000
10416.666016
10236.666016
10206.666016
10226.666016
10070.000000
10286.666016
10380.000000
10856.666016
10603.333008
10540.000000
10503.333008
10386.666016
10413.333008
10323.333008
10580.000000
10753.333008
10876.666016
10563.333008
10586.666016
10186.666016
10720.000000
10556.666016
10720.000000
10980.000000
10466.666016
10936.666016
10863.333008
10933.333008
10816.666016
11013.333008
10843.333008
10636.666016
10920.000000
10606.666016
10600.000000
11023.333008
10950.000000
11026.666016
10606.666016
11050.000000
10686.666016
10680.000000
11300.000000
11076.666016
11203.333008
10746.666016
10666.666016
11170.000000
11123.333008
11226.666016
10963.333008
11096.666016
10816.666016
11010.000000
11270.000000
11186.666016
11346.666016
11273.333008
11160.000000
11123.333008
11273.333008
11013.333008
11306.666016
11290.000000
11466.666016
11526.666016
11626.666016
11330.000000
11396.666016
11143.333008
11656.666016
11703.333008
11173.333008
11720.000000
11670.000000
11596.666016
11500.000000
12000.000000
11833.333008
11726.666016
11443.333008
11983.333008
11710.000000
11680.000000
11810.000000
11680.000000
11740.000000
11380.000000
11230.000000
11576.666016
11616.666016
11473.333008
11033.333008
11693.333008
11440.000000
11446.666016
11776.666016
11573.333008
11536.666016
11883.333008
11183.333008
12073.333008
12346.666016
12110.000000
12273.333008
12280.000000
11856.666016
11863.333008
11630.000000
11750.000000
10983.333008
11226.666016
10986.666016
10773.333008
10793.333008
10516.666016
10943.333008
10670.000000
10383.333008
10596.666016
10783.333008
10526.666016
10960.000000
10200.000000
10196.666016
10483.333008
10740.000000
10763.333008
10273.333008
10413.333008
10546.666016
10670.000000
10453.333008
10423.333008
10736.666016
10700.000000
10843.333008
10840.000000
10410.000000
10630.000000
10753.333008
10653.333008
10400.000000
10666.666016
10253.333008
10426.666016
10546.666016
10733.333008
10696.666016
10606.666016
10566.666016
10410.000000
10536.666016
11003.333008
10090.000000
10736.666016
10253.333008
10833.333008
10316.666016
10643.333008
10393.333008
10400.000000
10480.000000
10540.000000
10333.333008
10720.000000
10263.333008
10200.000000
10420.000000
10336.666016
10533.333008
10120.000000
10506.666016
10296.666016
10223.333008
10273.333008
10140.000000
10426.666016
10296.666016
10626.666016
10013.333008
9856.666016
10196.666016
10250.000000
10166.666016
10573.333008
10216.666016
10140.000000
10016.666016
10013.333008
10546.666016
9820.000000
9743.333008
9663.333008
9680.000000
9596.666016
9640.000000
9356.666016
9593.333008
9403.333008
9436.666016
9276.666016
9736.666016
9526.666016
9370.000000
9333.333008
9550.000000
9150.000000
9180.000000
9336.666016
9000.000000
9473.333008
9066.666016
9180.000000
9386.666016
9623.333008
9516.666016
9206.666016
9196.666016
9106.666016
8936.666016
8900.000000
9083.333008
9186.666016
9303.333008
9020.000000
8976.666016
9410.000000
8893.333008
9010.000000
9326.666016
9230.000000
8560.000000
9026.666016
9190.000000
9166.666016
9163.333008
8780.000000
8916.666016
8363.333008
8470.000000
8600.000000
8650.000000
8550.000000
8583.333008
8166.666504
8119.999512
8186.666504
7883.333008
7649.999512
8143.333008
7699.999512
7549.999512
7949.999512
7799.999512
7529.999512
7469.999512
7543.333008
7609.999512
7556.666504
7589.999512
7649.999512
7633.333008
7846.666504
7573.333008
7649.999512
7966.666504
7866.666504
7949.999512
7463.333008
7446.666504
7749.999512
7466.666504
7576.666504
7513.333008
7486.666504
7453.333008
7296.666504
7293.333008
7349.999512
7036.666504
7386.666504
7313.333008
7443.333008
7069.999512
7259.999512
7739.999512
7356.666504
7513.333008
7466.666504
7386.666504
7736.666504
7549.999512
7859.999512
7636.666504
7543.333008
7886.666504
7779.999512
7503.333008
7079.999512
7343.333008
7149.999512
6816.666504
6929.999512
7119.999512
6863.333008
6689.999512
7186.666504
6659.999512
6746.666504
7069.999512
6726.666504
6376.666504
6659.999512
6829.999512
6776.666504
6606.666504
6459.999512
6583.333008
6579.999512
6493.333008
6759.999512
6539.999512
6509.999512
6286.666504
6296.666504
6333.333008
6443.333008
6413.333008
6239.999512
6359.999512
6429.999512
6206.666504
6316.666504
6479.999512
6363.333008
6539.999512
6199.999512
6423.333008
6319.999512
6156.666504
6053.333008
6183.333008
6133.333008
6276.666504
5976.666504
6456.666504
6399.999512
5943.333008
6103.333008
6063.333008
5993.333008
6339.999512
6403.333008
6499.999512
6479.999512
6233.333008
5903.333008
5503.333008
5523.333008
5880.000000
5483.333008
5496.666504
5473.333008
5383.333008
5283.333008
5673.333008
6459.999512
6529.999512
6233.333008
4930.000000
3856.666504
3523.333252
3533.333252
3706.666504
3546.666504
3719.999756
3409.999756
3546.666504
3493.333252
3369.999756
3473.333252
3536.666504
3483.333252
3409.999756
3449.999756
3639.999756
3469.999756
3346.666504
3296.666504
3663.333252
3613.333252
3473.333252
3343.333252
3533.333252
3613.333252
3299.999756
3419.999756
3269.999756
3786.666504
3646.666504
3573.333252
3619.999756
3683.333252
3736.666504
3616.666504
3516.666504
3533.333252
3726.666504
3459.999756
3779.999756
3539.999756
3576.666504
3459.999756
3323.333252
3496.666504
3446.666504
3409.999756
3336.666504
3296.666504
3509.999756
3736.666504
3506.666504
3723.333252
3619.999756
3463.333252
3493.333252
3476.666504
3596.666504
3543.333252
3476.666504
3633.333252
3756.666504
3646.666504
3666.666504
3399.999756
3386.666504
3716.666504
3739.999756
3579.999756
3359.999756
3653.333252
3479.999756
3629.999756
3463.333252
3696.666504
3589.999756
3716.666504
3606.666504
3586.666504
3763.333252
3533.333252
3563.333252
3759.999756
3779.999756
3663.333252
3616.666504
3816.666504
3539.999756
3619.999756
3546.666504
3816.666504
3543.333252
3656.666504
3819.999756
3779.999756
3829.999756
3806.666504
3479.999756
3499.999756
3516.666504
3566.666504
3469.999756
3409.999756
3579.999756
3553.333252
3393.333252
3689.999756
3686.666504
3486.666504
3586.666504
3546.666504
3586.666504
3616.666504
3693.333252
3563.333252
3496.666504
3569.999756
3889.999756
3833.333252
3636.666504
3726.666504
3529.999756
3756.666504
3663.333252
3516.666504
3623.333252
3733.333252
3813.333252
3553.333252
3296.666504
3609.999756
3533.333252
3659.999756
3609.999756
3859.999756
3799.999756
3523.333252
3493.333252
3693.333252
3529.999756
3376.666504
3659.999756
3506.666504
3376.666504
3319.999756
3536.666504
3519.999756
3599.999756
3579.999756
3523.333252
3799.999756
3866.666504
3803.333252
3936.666504
3703.333252
3846.666504
3819.999756
3769.999756
3639.999756
3329.999756
3516.666504
3356.666504
3323.333252
3079.999756
3010.000000
3249.999756
2813.333252
2883.333252
2720.000000
2510.000000
2543.333252
2490.000000
2796.666504
3113.333252
4263.333008
6509.999512
8009.999512
7703.333008
6963.333008
5096.666504
2536.666504
2300.000000
2093.333252
2003.333252
2190.000000
2123.333252
2016.666626
1943.333252
2029.999878
1966.666626
2006.666626
2050.000000
1869.999878
1809.999878
1989.999878
1909.999878
2086.666504
2183.333252
2166.666504
2063.333252
1879.999878
2019.999878
1783.333252
1979.999878
2019.999878
1926.666626
2016.666626
1936.666626
1943.333252
2150.000000
1956.666626
1959.999878
2093.333252
2063.333252
1946.666626
2223.333252
1976.666626
2090.000000
2116.666504
2050.000000
2023.333252
1969.999878
1976.666626
2090.000000
1836.666626
2176.666504
1906.666626
2200.000000
2273.333252
2270.000000
2003.333252
2029.999878
2160.000000
2186.666504
2013.333252
1983.333252
2070.000000
2029.999878
2006.666626
2143.333252
2080.000000
2193.333252
2206.666504
1999.999878
1806.666626
1916.666626
2120.000000
2029.999878
2080.000000
2150.000000
1983.333252
2183.333252
2170.000000
2130.000000
1869.999878
2213.333252
2163.333252
2173.333252
2026.666626
1933.333252
2120.000000
1879.999878
2153.333252
1973.333252
1976.666626
2053.333252
2183.333252
1976.666626
2130.000000
2113.333252
2280.000000
2246.666504
2100.000000
2170.000000
2120.000000
2046.666626
2186.666504
2136.666504
2106.666504
2233.333252
2053.333252
2336.666504
2200.000000
2113.333252
2093.333252
2023.333252
2300.000000
2230.000000
2163.333252
1889.999878
2083.333252
2116.666504
2143.333252
2116.666504
2330.000000
2216.666504
2243.333252
2306.666504
2080.000000
2246.666504
2200.000000
2293.333252
2220.000000
2216.666504
2226.666504
2173.333252
2230.000000
2266.666504
2216.666504
2160.000000
2240.000000
2250.000000
2313.333252
2090.000000
2310.000000
2270.000000
2173.333252
2193.333252
2270.000000
2316.666504
2216.666504
2163.333252
2376.666504
2193.333252
2333.333252
2120.000000
2326.666504
2133.333252
2226.666504
2150.000000
2383.333252
2260.000000
2170.000000
2240.000000
2413.333252
2426.666504
2556.666504
2416.666504
2123.333252
2093.333252
2210.000000
2396.666504
2410.000000
2336.666504
2230.000000
2403.333252
2230.000000
2390.000000
2380.000000
2296.666504
2250.000000
2456.666504
2310.000000
2320.000000
2430.000000
2450.000000
2460.000000
2423.333252
2380.000000
2290.000000
2333.333252
2416.666504
2250.000000
2406.666504
2396.666504
2460.000000
2406.666504
2093.333252
2570.000000
2616.666504
2496.666504
2530.000000
2550.000000
2326.666504
2390.000000
2493.333252
2463.333252
2293.333252
2550.000000
2513.333252
2350.000000
2570.000000
2516.666504
2453.333252
2516.666504
2386.666504
2616.666504
2633.333252
2430.000000
2556.666504
2496.666504
2780.000000
2653.333252
2670.000000
2596.666504
2633.333252
2733.333252
2666.666504
2620.000000
2810.000000
2746.666504
2663.333252
2543.333252
2516.666504
2820.000000
2790.000000
2696.666504
2550.000000
2406.666504
2293.333252
2150.000000
2116.666504
2036.666626
2003.333252
1706.666626
1836.666626
1663.333252
1656.666626
1643.333252
2540.000000
2790.000000
2656.666504
4730.000000
9450.000000
9036.666016
3516.666504
1786.666626
1569.999878
1536.666626
1290.000000
1443.333252
1493.333252
1380.000000
1423.333252
1343.333252
1346.666626
1340.000000
1433.333252
1290.000000
1366.666626
1336.666626
1396.666626
1320.000000
1343.333252
1376.666626
1380.000000
1536.666626
1240.000000
1290.000000
1330.000000
1270.000000
1310.000000
1310.000000
1283.333252
1386.666626
1306.666626
1326.666626
1546.666626
1363.333252
1303.333252
1450.000000
1380.000000
1436.666626
1270.000000
1313.333252
1326.666626
1366.666626
1276.666626
1370.000000
1413.333252
1326.666626
1360.000000
1346.666626
1363.333252
1340.000000
1356.666626
1530.000000
1250.000000
1300.000000
1443.333252
1410.000000
1549.999878
1390.000000
1333.333252
1493.333252
1283.333252
1303.333252
1376.666626
1460.000000
1450.000000
1376.666626
1383.333252
1370.000000
1393.333252
1413.333252
1473.333252
1293.333252
1403.333252
1413.333252
1323.333252
1250.000000
1380.000000
1330.000000
1483.333252
1283.333252
1516.666626
1396.666626
1420.000000
1433.333252
1310.000000
1403.333252
1300.000000
1240.000000
1410.000000
1320.000000
1280.000000
1246.666626
1323.333252
1496.666626
1370.000000
1320.000000
1513.333252
1376.666626
1373.333252
1420.000000
1300.000000
1376.666626
1283.333252
1380.000000
1280.000000
1320.000000
1373.333252
1296.666626
1410.000000
1343.333252
1456.666626
1290.000000
1286.666626
1430.000000
1483.333252
1410.000000
1326.666626
1516.666626
1443.333252
1406.666626
1376.666626
1403.333252
1333.333252
1226.666626
1273.333252
1320.000000
1333.333252
1233.333252
1286.666626
1486.666626
1473.333252
1440.000000
1280.000000
1320.000000
1376.666626
1256.666626
1333.333252
1186.666626
1236.666626
1286.666626
1240.000000
1203.333252
1330.000000
1263.333252
1243.333252
1290.000000
1283.333252
1303.333252
1316.666626
1276.666626
1233.333252
1226.666626
1213.333252
1336.666626
1296.666626
1380.000000
1250.000000
1230.000000
1180.000000
1226.666626
1413.333252
1266.666626
1213.333252
1383.333252
1313.333252
1383.333252
1200.000000
1286.666626
1190.000000
1096.666626
1100.000000
1130.000000
1126.666626
1326.666626
1216.666626
1130.000000
1110.000000
1130.000000
1330.000000
1253.333252
1333.333252
1443.333252
1443.333252
1333.333252
1246.666626
1130.000000
1156.666626
1143.333252
1273.333252
1200.000000
1123.333252
999.999939
1133.333252
1019.999939
1060.000000
1130.000000
1040.000000
906.666626
826.666626
906.666626
836.666626
936.666626
996.666626
959.999939
993.333313
869.999939
986.666626
883.333313
826.666626
816.666626
889.999939
973.333313
763.333313
713.333313
779.999939
843.333313
789.999939
823.333313
760.000000
839.999939
740.000000
740.000000
726.666626
686.666626
806.666626
1036.666626
1106.666626
1589.999878
1490.000000
1009.999939
546.666626
479.999969
396.666656
336.666656
330.000000
300.000000
290.000000
346.666656
316.666656
306.666656
249.999985
320.000000
256.666656
263.333313
256.666656
260.000000
306.666656
290.000000
316.666656
280.000000
219.999985
276.666656
366.666656
296.666656
276.666656
306.666656
313.333313
323.333313
386.666656
370.000000
426.666656
393.333313
356.666656
229.999985
313.333313
266.666656
243.333328
226.666656
233.333328
263.333313
273.333313
253.333328
146.666656
180.000000
209.999985
239.999985
310.000000
333.333313
260.000000
223.333328
183.333328
119.999992
49.999996
end of experiment
