VAMAS Surface Chemical Analysis Standard Data Transfer Format 1988 May 4
Ulvac-Phi,Inc.
Quantes 
XK 
HSu 
3
exported from PHI-MultiPak
 
 
NORM
REGULAR
1 
0
0
0
0
0
1 
Block No.1 
Sample ID : 1
2022 
11 
28 
-1
-1
-1
-1
2
IntensityCalCoeff: 107.072000 0.591000 
0
XPS
Cr mono
5414.80
52.959999
2000
800
0.000000
90.000000
FAT
280.000000
5.000000
4.450000
0
100.000000
100.000000
45.000000
270.000000
Sur

-1
Binding Energy
eV
5000.000000
-1.000000
1
Intensity
c/s
pulse counting
1.800000
1
0
3.101349e-003
90
359.993591
0
5001
8.888888
899.444397
285.555542
260.000000
253.333328
286.111115
296.111115
264.444427
278.333313
299.444427
313.888885
301.111084
304.444427
297.222198
286.666656
277.777771
277.222198
281.666656
294.444427
288.333313
274.444427
254.444427
257.222198
272.777771
290.555542
302.222198
288.333313
282.777771
295.000000
286.111115
283.333313
290.000000
277.777771
267.222198
292.222198
256.666656
301.111084
281.111115
271.666656
286.666656
288.333313
265.555542
276.666656
293.333313
274.444427
270.555542
305.555542
276.111115
285.555542
284.444427
298.333313
316.666656
280.000000
283.333313
301.666656
302.222198
293.333313
283.888885
298.888885
278.333313
278.333313
298.888885
281.666656
298.888885
286.111115
280.000000
322.777771
295.000000
266.111115
290.555542
275.555542
281.111115
302.222198
281.666656
298.333313
307.777771
282.777771
282.777771
306.666656
275.000000
301.666656
294.444427
290.555542
286.111115
292.777771
279.444427
291.666656
296.111115
281.666656
297.777771
286.111115
296.666656
305.555542
286.111115
318.333313
310.000000
270.555542
299.444427
263.333313
303.333313
254.999985
303.333313
301.666656
320.000000
287.222198
273.888885
263.333313
253.888885
298.888885
254.999985
257.222198
240.555542
267.777771
249.999985
271.111115
297.777771
248.888885
262.777771
272.222198
277.777771
264.444427
247.777771
272.222198
271.666656
282.777771
259.444427
277.777771
272.222198
262.777771
281.666656
288.888885
278.888885
251.666656
272.777771
250.555542
276.111115
256.111115
280.000000
297.222198
263.888885
262.222198
286.111115
262.222198
264.444427
266.666656
263.888885
260.000000
283.888885
249.444427
292.777771
277.222198
260.555542
259.444427
251.111099
253.333328
276.666656
296.111115
262.777771
249.444427
251.111099
237.777771
253.888885
279.444427
267.777771
244.444427
262.777771
256.111115
256.666656
275.000000
262.222198
269.444427
264.444427
255.555542
271.666656
271.666656
252.777771
261.111115
268.888885
258.888885
252.222214
269.444427
249.999985
263.333313
267.777771
259.444427
252.222214
260.000000
260.000000
252.222214
214.999985
248.333328
244.444427
242.222214
236.666656
242.777771
252.777771
248.888885
267.777771
244.444427
236.666656
228.333328
242.777771
241.111099
254.444427
237.777771
236.111099
268.888885
238.333328
237.777771
229.999985
236.666656
241.666656
245.555542
259.444427
266.111115
250.555542
223.333328
254.444427
237.222214
237.222214
252.777771
235.555542
227.777771
223.333328
262.222198
227.777771
251.666656
239.444427
222.222214
239.444427
247.777771
256.111115
263.333313
248.333328
222.777771
233.888885
229.444443
244.444427
225.555542
233.888885
252.777771
239.999985
223.333328
238.333328
220.555542
220.555542
221.111099
204.999985
220.555542
223.888885
253.333328
232.222214
242.777771
247.222214
244.999985
226.666656
219.444443
216.666656
246.111099
222.777771
232.222214
229.444443
215.555542
222.222214
215.555542
241.111099
214.999985
224.444443
235.555542
227.777771
225.555542
227.222214
238.888885
244.444427
229.444443
246.666656
223.888885
223.888885
244.999985
231.111099
223.333328
254.444427
221.111099
237.777771
224.444443
232.222214
231.666656
239.999985
243.888885
246.111099
240.555542
248.888885
234.444443
236.666656
246.666656
239.999985
227.222214
227.222214
226.666656
208.888885
211.666656
216.111099
236.111099
218.333328
228.333328
225.555542
232.777771
210.555542
222.222214
197.777771
194.999985
213.888885
233.888885
211.111099
212.777771
206.666656
212.222214
214.999985
226.666656
236.111099
201.111099
195.555542
196.666656
191.111099
221.111099
203.333328
222.222214
222.777771
224.999985
221.666656
215.555542
217.777771
235.555542
226.666656
224.999985
211.666656
233.888885
233.333328
222.222214
230.555542
253.888885
231.666656
221.666656
219.999985
221.111099
212.222214
235.555542
229.999985
222.777771
241.666656
231.666656
229.999985
226.666656
251.666656
228.888885
236.111099
213.888885
224.999985
231.111099
232.777771
207.222214
201.666656
208.888885
225.555542
203.888885
192.777771
255.555542
219.444443
213.333328
239.444427
228.888885
225.555542
238.333328
237.777771
231.666656
231.111099
221.111099
221.666656
213.888885
217.222214
232.222214
228.333328
248.333328
239.444427
218.333328
206.111099
249.444427
211.666656
206.111099
221.111099
256.666656
257.222198
246.666656
238.888885
228.888885
222.777771
236.666656
237.222214
233.888885
226.111099
237.777771
245.555542
218.888885
232.222214
214.444443
251.666656
246.111099
245.555542
228.333328
233.888885
229.444443
232.777771
248.333328
249.999985
241.666656
267.777771
223.888885
234.444443
233.888885
240.555542
219.444443
253.333328
234.444443
230.555542
212.222214
220.555542
227.777771
223.333328
236.111099
241.666656
232.777771
239.999985
219.444443
224.999985
254.444427
242.222214
238.888885
233.333328
221.111099
217.777771
238.333328
252.222214
233.333328
234.999985
248.333328
245.555542
243.333328
251.666656
244.999985
239.444427
253.333328
222.777771
228.888885
239.444427
259.444427
247.222214
232.222214
230.555542
227.222214
234.999985
239.444427
247.222214
241.111099
229.444443
257.222198
237.222214
258.888885
232.222214
233.888885
224.444443
232.222214
239.999985
260.555542
257.222198
273.333313
234.444443
219.444443
236.666656
238.333328
247.222214
253.333328
244.999985
242.777771
248.888885
251.111099
249.999985
256.666656
221.666656
248.333328
237.222214
242.222214
269.444427
260.000000
224.444443
244.444427
223.888885
240.555542
247.777771
260.000000
246.666656
263.333313
249.999985
241.111099
250.555542
271.666656
247.222214
251.666656
279.444427
271.666656
249.444427
256.666656
256.111115
262.777771
265.555542
238.888885
255.555542
237.777771
253.888885
263.888885
276.666656
244.444427
243.333328
236.111099
275.000000
278.888885
258.333313
246.666656
258.333313
266.666656
280.555542
264.444427
272.777771
260.555542
250.555542
251.666656
261.111115
243.333328
281.666656
265.000000
265.000000
258.333313
245.555542
260.000000
236.111099
260.000000
270.000000
252.222214
278.888885
244.999985
252.222214
273.333313
259.444427
263.888885
248.888885
265.000000
242.222214
243.333328
265.555542
265.000000
243.333328
262.777771
270.555542
242.777771
268.333313
277.222198
272.777771
259.444427
265.000000
249.999985
261.666656
276.666656
258.888885
257.777771
265.000000
270.000000
283.888885
256.666656
246.111099
276.111115
261.111115
248.888885
262.222198
273.333313
261.666656
265.000000
253.888885
231.666656
263.888885
287.777771
258.333313
280.555542
276.666656
276.666656
275.555542
242.777771
267.777771
274.444427
264.444427
268.333313
265.000000
269.444427
281.666656
268.888885
249.999985
266.111115
278.333313
259.444427
291.111115
251.666656
249.999985
263.333313
280.000000
269.444427
255.555542
258.888885
243.333328
246.111099
267.777771
258.888885
262.222198
262.777771
255.555542
286.111115
275.000000
259.444427
274.444427
281.666656
283.333313
259.444427
270.555542
311.111084
282.777771
256.111115
262.222198
255.555542
270.555542
274.444427
285.555542
265.000000
288.888885
273.888885
267.222198
260.000000
291.111115
254.999985
275.555542
280.000000
287.777771
268.333313
283.888885
302.222198
275.000000
254.999985
290.000000
288.888885
275.000000
260.555542
263.888885
276.666656
293.333313
284.444427
269.444427
292.222198
260.555542
300.000000
296.666656
262.222198
283.333313
275.000000
287.777771
286.666656
282.777771
277.777771
308.333313
300.000000
271.111115
268.888885
295.000000
285.555542
281.111115
296.666656
267.222198
298.888885
273.888885
285.555542
283.888885
293.333313
267.222198
276.111115
281.666656
306.111084
288.888885
280.555542
283.333313
289.444427
274.444427
297.777771
300.555542
277.222198
250.555542
285.555542
283.888885
293.888885
262.222198
271.111115
280.555542
272.777771
281.111115
293.888885
300.000000
261.666656
287.777771
260.555542
301.111084
291.111115
281.666656
292.222198
279.444427
293.333313
271.666656
312.777771
293.333313
265.000000
306.666656
290.555542
290.000000
280.000000
296.666656
311.666656
281.666656
287.777771
279.444427
297.222198
290.555542
279.444427
280.555542
305.000000
280.555542
297.222198
282.777771
304.444427
295.000000
289.444427
293.333313
276.666656
297.222198
287.222198
287.777771
302.222198
291.111115
271.111115
288.888885
285.000000
285.000000
295.555542
302.222198
298.333313
298.333313
281.666656
291.666656
302.777771
311.111084
288.333313
316.111084
298.888885
286.666656
293.333313
278.333313
302.222198
287.222198
311.111084
297.777771
330.555542
304.444427
311.111084
302.222198
302.777771
305.555542
282.777771
296.666656
281.666656
303.888885
311.666656
301.666656
293.333313
321.666656
290.555542
300.555542
314.444427
298.333313
308.333313
291.111115
307.777771
311.111084
301.666656
296.111115
288.333313
305.000000
313.888885
288.888885
322.222198
285.555542
309.444427
274.444427
320.555542
305.000000
289.444427
307.777771
283.888885
291.666656
296.111115
306.666656
290.000000
283.888885
332.222198
317.222198
292.222198
305.555542
317.222198
298.333313
305.000000
321.111084
306.111084
331.666656
297.777771
303.888885
341.111084
333.888885
298.333313
309.444427
322.222198
298.888885
333.888885
330.000000
303.333313
311.111084
311.666656
299.444427
310.555542
319.444427
338.333313
293.888885
306.666656
318.888885
308.333313
318.333313
300.000000
300.555542
324.444427
343.333313
327.777771
326.111084
313.888885
313.888885
311.111084
350.555542
343.888885
318.333313
300.000000
288.333313
317.222198
308.888885
339.444427
290.000000
315.555542
297.777771
319.444427
318.888885
326.111084
284.444427
305.555542
309.444427
295.555542
305.000000
350.000000
340.555542
298.888885
287.777771
347.222198
330.555542
343.888885
305.000000
287.222198
315.000000
288.333313
333.888885
318.333313
317.777771
308.333313
303.888885
285.555542
318.333313
320.555542
322.777771
317.777771
322.222198
327.777771
305.000000
318.888885
310.000000
312.222198
322.777771
335.555542
310.000000
311.666656
338.888885
356.666656
339.444427
323.888885
292.777771
324.444427
340.000000
325.555542
323.333313
316.111084
325.555542
316.111084
292.222198
305.000000
344.444427
309.444427
313.888885
341.111084
365.000000
342.222198
371.111084
316.111084
301.666656
326.111084
372.222198
308.888885
328.888885
322.777771
318.333313
336.111084
330.000000
337.222198
330.000000
318.333313
326.666656
326.666656
315.555542
359.444427
339.444427
331.666656
303.888885
329.444427
286.666656
342.222198
321.666656
357.222198
324.444427
338.888885
318.333313
330.000000
356.666656
322.222198
322.222198
351.666656
328.888885
331.111084
326.666656
322.222198
317.777771
353.888885
333.333313
341.666656
337.222198
382.777771
338.888885
347.777771
331.666656
308.888885
315.000000
320.555542
323.888885
353.888885
335.000000
356.666656
353.333313
363.333313
338.888885
337.222198
323.888885
350.555542
330.000000
333.888885
321.666656
352.222198
348.333313
343.333313
341.666656
344.444427
346.666656
317.777771
331.666656
316.666656
322.222198
371.111084
347.777771
328.888885
348.333313
356.666656
337.222198
333.888885
328.888885
361.666656
370.555542
316.111084
332.222198
333.333313
329.444427
340.000000
345.000000
351.111084
367.777771
348.333313
345.555542
316.666656
335.000000
323.333313
347.222198
361.111084
326.666656
358.333313
352.777771
354.444427
318.333313
337.777771
343.888885
346.111084
337.777771
331.111084
360.000000
353.888885
365.000000
335.000000
325.555542
346.111084
384.444427
356.111084
336.111084
345.000000
360.555542
348.333313
352.777771
344.444427
351.111084
340.000000
351.111084
330.555542
352.777771
330.000000
346.111084
363.888885
341.666656
351.111084
346.666656
350.000000
353.333313
356.666656
343.888885
350.555542
356.666656
337.777771
343.888885
310.000000
332.777771
350.000000
368.888885
352.777771
352.777771
331.666656
347.222198
353.888885
351.111084
342.222198
340.000000
362.222198
360.555542
345.555542
376.111084
358.333313
381.666656
352.777771
350.000000
364.444427
367.777771
346.666656
352.777771
373.333313
343.888885
363.888885
357.222198
381.666656
362.777771
365.000000
339.444427
357.777771
363.333313
381.666656
381.666656
364.444427
392.222198
356.666656
381.111084
370.555542
351.111084
357.777771
377.222198
382.222198
359.444427
376.666656
367.777771
383.888885
387.777771
351.666656
382.222198
367.222198
356.666656
344.444427
347.777771
333.333313
361.111084
373.333313
376.111084
389.999969
373.333313
355.000000
368.333313
367.777771
351.666656
375.000000
348.888885
363.333313
374.444427
385.555542
383.333313
392.777771
380.555542
391.111084
405.555542
382.777771
385.555542
372.777771
359.444427
380.555542
368.333313
377.777771
366.666656
357.777771
382.222198
371.111084
356.111084
380.555542
375.555542
368.888885
378.888885
369.444427
380.000000
366.111084
378.333313
355.555542
392.222198
393.333313
370.555542
357.222198
379.444427
388.333313
405.555542
367.222198
356.666656
399.999969
384.999969
387.777771
377.222198
388.888885
361.666656
386.666656
374.444427
380.555542
376.666656
363.333313
364.444427
384.444427
353.333313
358.333313
358.888885
382.777771
406.111084
384.999969
401.666656
402.777771
409.999969
379.444427
419.999969
427.222198
457.777771
444.444427
466.111084
433.333313
393.888885
359.444427
375.555542
369.444427
364.444427
406.111084
402.222198
369.444427
401.666656
390.555542
352.222198
363.333313
373.888885
368.333313
360.000000
371.666656
392.222198
395.555542
417.222198
378.333313
382.777771
378.888885
366.666656
348.333313
387.222198
345.000000
340.000000
360.555542
359.444427
345.000000
363.888885
337.222198
373.888885
383.333313
373.888885
391.666656
392.222198
354.444427
392.222198
383.333313
356.666656
361.666656
389.999969
379.444427
406.111084
382.222198
389.999969
375.555542
401.666656
383.333313
390.555542
396.111084
361.666656
362.222198
381.666656
419.444427
366.666656
387.222198
370.000000
379.444427
408.333313
383.888885
413.888885
381.111084
375.555542
395.555542
381.666656
405.555542
394.999969
408.888885
383.888885
374.444427
379.444427
382.222198
390.555542
387.222198
386.111084
382.222198
418.333313
419.444427
401.666656
367.222198
371.111084
399.444427
388.888885
400.555542
387.777771
380.555542
375.555542
379.444427
418.333313
409.999969
401.666656
407.222198
393.333313
395.555542
396.666656
382.222198
397.222198
396.111084
388.888885
382.777771
387.222198
386.666656
401.111084
421.111084
400.555542
403.333313
387.777771
373.333313
401.111084
375.555542
380.555542
387.222198
392.777771
386.111084
374.444427
406.111084
393.333313
394.999969
395.555542
397.222198
418.888885
417.777771
388.333313
415.555542
383.333313
387.222198
393.333313
408.888885
396.111084
402.222198
409.444427
444.999969
404.999969
429.444427
388.333313
383.333313
404.444427
399.444427
381.111084
387.222198
396.666656
394.999969
391.666656
406.111084
389.444427
419.444427
368.888885
403.888885
428.888885
403.888885
393.888885
412.777771
406.666656
417.777771
394.999969
390.555542
391.111084
390.555542
371.666656
383.333313
392.777771
399.999969
392.222198
407.777771
399.999969
433.333313
396.111084
399.999969
426.666656
393.888885
406.666656
378.333313
386.111084
380.000000
410.555542
392.222198
404.999969
420.555542
416.666656
399.444427
392.222198
396.666656
371.111084
441.666656
380.555542
394.999969
416.666656
383.333313
398.333313
419.999969
410.555542
423.333313
434.999969
435.555542
409.444427
404.999969
409.444427
419.999969
402.222198
399.999969
409.444427
402.222198
394.999969
408.333313
408.888885
404.999969
422.777771
405.555542
399.444427
412.222198
413.888885
395.555542
403.888885
419.999969
437.777771
421.111084
380.000000
428.888885
434.444427
419.444427
451.111084
442.777771
453.333313
431.666656
442.222198
452.222198
403.888885
409.444427
380.555542
452.777771
416.111084
443.888885
418.888885
422.222198
436.666656
421.111084
426.666656
377.777771
409.999969
431.666656
437.777771
424.444427
424.444427
439.999969
398.333313
387.222198
428.888885
422.777771
426.666656
418.333313
414.444427
416.111084
388.888885
440.555542
428.888885
435.555542
418.333313
433.888885
426.666656
407.777771
453.888885
411.666656
421.111084
413.333313
418.888885
440.555542
449.999969
442.222198
434.444427
421.111084
428.333313
441.666656
445.555542
437.777771
407.222198
422.777771
389.999969
428.888885
443.888885
430.555542
433.888885
409.999969
434.999969
441.666656
449.999969
417.777771
427.222198
429.999969
434.444427
413.888885
422.222198
446.666656
437.222198
474.444427
466.666656
436.666656
436.111084
441.666656
418.333313
397.222198
412.777771
436.666656
411.666656
428.333313
451.111084
424.999969
455.555542
414.444427
432.222198
414.999969
420.555542
419.444427
419.999969
448.888885
436.111084
436.666656
439.444427
437.777771
436.111084
453.888885
431.111084
409.444427
404.999969
433.333313
411.666656
439.999969
408.333313
409.444427
422.777771
424.999969
427.777771
421.111084
416.666656
427.222198
437.222198
433.333313
437.222198
433.333313
412.777771
443.888885
492.222198
452.777771
408.333313
451.666656
436.666656
452.777771
453.888885
422.222198
439.999969
438.888885
450.555542
475.555542
446.666656
451.111084
483.333313
442.777771
437.777771
462.222198
478.888855
456.666656
432.777771
454.999969
423.888885
449.999969
465.555542
435.555542
463.333313
453.333313
419.999969
416.666656
459.999969
439.999969
471.666656
489.444427
438.333313
405.555542
449.999969
469.444427
426.666656
468.888885
447.222198
442.222198
440.555542
443.333313
443.888885
463.333313
444.999969
449.444427
467.777771
461.111084
471.111084
438.333313
416.666656
449.444427
445.555542
451.666656
467.777771
463.333313
437.777771
445.555542
468.333313
425.555542
471.666656
433.888885
464.444427
395.555542
431.111084
448.333313
438.333313
453.888885
455.555542
443.888885
438.333313
454.444427
470.555542
464.444427
470.555542
456.111084
448.333313
437.777771
457.777771
439.999969
457.777771
468.333313
461.666656
453.888885
442.777771
449.444427
427.777771
460.555542
441.666656
424.444427
464.999969
471.111084
440.555542
451.111084
427.222198
451.111084
420.555542
427.777771
493.333313
479.444427
451.666656
443.888885
449.999969
424.999969
471.111084
467.222198
429.999969
438.888885
415.555542
468.333313
467.222198
453.333313
438.888885
455.555542
489.444427
467.222198
466.666656
438.333313
473.333313
466.111084
469.999969
479.999969
465.555542
481.111084
469.999969
466.111084
460.555542
493.888855
467.222198
473.333313
467.222198
453.888885
494.444427
480.555542
478.333313
472.222198
429.999969
467.222198
441.111084
472.222198
475.555542
511.111084
445.555542
461.666656
450.555542
438.333313
468.333313
453.333313
505.555542
447.777771
470.555542
501.666656
462.222198
470.555542
493.888855
471.666656
444.444427
480.555542
444.999969
451.111084
475.555542
456.111084
437.777771
470.555542
493.888855
495.555542
438.333313
436.111084
455.555542
485.555542
474.444427
453.888885
452.777771
482.777771
471.111084
458.888885
479.444427
443.333313
467.222198
459.444427
484.444427
477.777771
458.888885
483.333313
425.555542
455.555542
499.999969
441.666656
443.888885
412.777771
481.666656
483.888855
454.999969
448.333313
474.999969
484.444427
504.999969
459.999969
414.999969
456.666656
474.444427
449.444427
469.999969
450.555542
480.555542
468.888885
488.333313
496.111084
462.222198
457.777771
458.888885
413.333313
455.555542
461.666656
485.555542
443.888885
489.999969
466.111084
435.555542
468.888885
450.555542
464.444427
466.666656
479.999969
485.555542
481.666656
456.666656
487.777771
489.999969
466.666656
479.999969
440.555542
458.333313
465.555542
474.444427
459.444427
471.111084
477.777771
452.222198
510.555542
465.555542
469.999969
470.555542
512.777771
461.666656
519.444397
475.555542
481.666656
516.111084
496.111084
513.333313
456.666656
464.444427
486.666656
488.333313
481.111084
472.777771
448.333313
472.222198
501.666656
491.666656
462.222198
471.666656
480.555542
478.333313
499.999969
512.777771
471.666656
482.777771
463.888885
503.333313
471.111084
487.222198
499.999969
452.777771
486.666656
483.888855
471.111084
474.999969
471.111084
478.888855
466.666656
472.222198
449.999969
466.111084
506.111084
464.444427
483.333313
468.333313
501.111084
477.777771
455.555542
498.333313
515.000000
491.666656
472.777771
502.222198
499.999969
466.111084
501.666656
472.777771
499.999969
468.888885
473.333313
474.999969
497.777771
475.555542
437.777771
490.555542
501.666656
499.444427
508.888855
491.666656
461.666656
497.777771
504.999969
496.111084
473.888855
474.999969
507.777771
504.444427
478.888855
494.444427
483.888855
474.999969
474.444427
532.777771
479.444427
501.666656
478.888855
488.888855
490.555542
449.444427
477.222198
482.222198
494.444427
474.444427
458.333313
488.333313
504.444427
499.999969
522.222229
479.999969
481.111084
492.222198
478.333313
506.111084
525.000000
496.666656
526.111084
497.222198
494.999969
502.222198
454.444427
513.333313
474.444427
489.444427
498.333313
489.999969
522.222229
501.666656
498.333313
478.333313
477.222198
533.333313
496.111084
522.222229
474.444427
512.222229
516.111084
504.444427
469.444427
464.444427
482.777771
493.888855
469.444427
488.333313
483.888855
503.888855
489.999969
497.222198
497.222198
488.888855
496.111084
522.777771
466.666656
486.111084
521.666626
520.555542
488.888855
488.333313
479.444427
508.888855
495.555542
497.777771
494.444427
463.333313
447.222198
473.888855
493.333313
489.999969
472.777771
480.555542
492.222198
507.222198
467.222198
533.333313
500.555542
508.333313
467.222198
493.888855
483.888855
505.555542
506.111084
502.222198
521.111084
488.888855
506.111084
477.222198
496.666656
507.222198
488.333313
491.666656
494.444427
476.111084
500.555542
512.777771
494.999969
523.888855
489.999969
496.666656
520.000000
532.222229
508.333313
501.666656
532.777771
487.777771
517.777771
484.444427
521.111084
497.222198
497.222198
491.666656
494.444427
483.333313
493.888855
488.888855
548.333313
524.444397
507.777771
482.222198
508.888855
507.222198
515.000000
508.888855
515.555542
491.111084
473.888855
464.444427
472.777771
496.666656
499.999969
493.333313
528.333313
510.555542
529.444397
514.444397
524.444397
527.222229
502.222198
482.222198
465.555542
515.000000
503.333313
492.777771
481.666656
504.999969
503.888855
494.444427
504.999969
511.666656
481.111084
470.555542
498.888855
515.555542
476.666656
512.222229
489.444427
524.444397
556.666626
518.333313
510.555542
519.444397
503.888855
530.000000
514.444397
499.999969
487.222198
497.777771
493.333313
497.222198
525.555542
496.111084
503.888855
494.444427
517.222229
459.444427
524.444397
495.555542
488.333313
475.555542
508.888855
503.333313
496.111084
478.333313
536.666626
496.666656
513.888855
525.000000
522.222229
489.444427
521.111084
552.222229
552.777771
555.000000
508.888855
547.777771
545.555542
535.000000
521.666626
506.666656
511.111084
518.888855
521.666626
529.444397
518.888855
509.444427
542.222229
508.888855
530.555542
553.888855
522.222229
504.999969
506.666656
515.000000
488.888855
525.000000
536.111084
523.888855
532.222229
507.222198
570.555542
496.111084
556.666626
549.444397
518.333313
510.555542
526.111084
523.333313
516.111084
518.333313
509.999969
520.555542
561.111084
521.111084
506.111084
498.888855
542.222229
540.555542
556.666626
515.555542
532.222229
516.666626
517.222229
541.111084
517.777771
516.666626
526.111084
533.888855
532.777771
487.222198
516.111084
507.222198
507.777771
513.333313
507.222198
469.999969
531.111084
563.888855
548.333313
491.666656
533.333313
537.222229
538.333313
523.888855
541.666626
524.444397
499.999969
519.444397
531.666626
570.555542
503.333313
533.888855
527.222229
547.777771
537.222229
542.777771
536.111084
545.000000
484.999969
530.555542
499.999969
513.333313
550.000000
520.000000
525.555542
527.222229
513.333313
512.777771
550.555542
515.555542
527.777771
513.333313
552.777771
526.111084
504.999969
539.444397
553.888855
518.333313
534.444397
525.000000
522.777771
524.444397
522.777771
564.444397
545.555542
538.333313
575.555542
586.666626
560.555542
525.555542
496.666656
518.888855
513.888855
525.000000
489.999969
519.444397
515.555542
525.555542
565.000000
520.000000
534.444397
551.666626
533.888855
572.222229
547.777771
512.777771
526.666626
538.888855
531.666626
527.222229
520.000000
531.666626
543.888855
511.111084
519.444397
549.444397
572.777771
576.111084
536.111084
556.666626
545.000000
542.222229
536.111084
572.777771
526.111084
530.000000
546.111084
543.333313
567.777771
546.666626
559.444397
512.777771
540.000000
546.666626
560.000000
533.333313
517.777771
547.222229
516.666626
545.555542
566.111084
552.222229
540.000000
564.444397
542.777771
532.777771
532.777771
540.555542
556.666626
543.333313
494.444427
551.111084
538.888855
548.333313
572.222229
581.666626
532.222229
530.555542
555.000000
559.444397
560.000000
510.555542
528.888855
555.000000
553.333313
563.888855
536.666626
547.222229
542.777771
509.444427
535.000000
535.000000
523.333313
530.555542
531.111084
556.111084
543.333313
546.111084
556.666626
547.222229
565.555542
578.333313
524.444397
532.777771
543.888855
557.777771
543.333313
525.000000
572.777771
568.333313
545.555542
552.222229
586.111084
552.222229
557.777771
561.666626
531.111084
532.222229
528.333313
536.111084
586.111084
561.111084
543.333313
561.666626
554.444397
523.888855
531.666626
516.111084
529.444397
538.333313
539.444397
543.333313
517.777771
550.000000
556.666626
551.666626
604.444397
550.555542
551.666626
528.888855
528.333313
566.666626
551.111084
538.333313
572.222229
546.111084
586.666626
550.555542
545.555542
577.777771
575.555542
543.888855
565.555542
550.555542
606.666626
564.444397
548.888855
537.222229
558.333313
559.444397
545.000000
550.555542
544.444397
546.666626
540.000000
528.888855
550.555542
578.333313
582.222229
543.888855
545.000000
547.777771
563.888855
581.666626
518.333313
546.666626
557.222229
558.888855
530.555542
562.777771
543.888855
582.777771
560.000000
569.444397
590.555542
569.444397
590.555542
581.111084
566.666626
566.666626
576.111084
553.333313
546.111084
540.000000
563.333313
568.333313
539.444397
577.777771
567.777771
555.000000
558.888855
553.333313
582.222229
561.111084
537.777771
561.111084
557.222229
575.555542
561.111084
563.333313
556.111084
603.333313
614.444397
523.333313
555.000000
557.222229
589.444397
562.777771
543.333313
575.000000
517.222229
563.333313
571.666626
608.333313
530.000000
560.000000
586.666626
581.666626
579.444397
593.888855
572.777771
543.333313
605.000000
550.000000
553.333313
586.666626
555.000000
570.555542
580.000000
586.111084
581.111084
558.888855
578.888855
552.777771
553.333313
565.555542
588.888855
588.333313
585.000000
585.000000
545.555542
581.111084
577.222229
599.444397
596.666626
572.222229
569.444397
598.333313
550.555542
541.666626
580.555542
557.222229
556.111084
557.777771
565.000000
562.777771
551.666626
589.444397
586.111084
565.555542
569.444397
569.444397
543.333313
553.333313
597.777771
576.111084
574.444397
570.000000
571.666626
597.777771
585.555542
605.000000
583.333313
597.222229
599.444397
572.777771
565.000000
569.444397
583.333313
565.555542
604.444397
580.555542
572.777771
577.777771
560.555542
595.000000
579.444397
577.777771
561.666626
621.666626
582.777771
617.777771
580.000000
608.333313
579.444397
584.444397
593.333313
584.444397
588.888855
587.777771
595.000000
590.000000
583.333313
584.444397
589.444397
623.333313
617.222168
595.000000
621.666626
537.222229
582.777771
564.444397
604.444397
583.888855
612.777771
579.444397
575.555542
600.555542
578.888855
582.222229
603.888855
611.666626
560.555542
570.555542
597.222229
593.888855
597.222229
631.111084
620.555542
574.444397
628.333313
587.777771
595.000000
576.666626
535.000000
564.444397
565.555542
611.111084
609.444397
655.555542
641.666626
624.444397
637.777771
600.000000
596.666626
622.222168
649.444397
631.666626
620.000000
593.333313
582.777771
555.555542
587.222229
555.555542
567.222229
568.333313
566.666626
563.888855
553.333313
563.333313
560.000000
570.000000
569.444397
586.111084
541.111084
559.444397
571.666626
603.333313
586.111084
626.666626
606.111084
593.333313
605.000000
598.888855
566.666626
608.333313
601.111084
557.777771
587.777771
532.222229
597.777771
587.777771
615.555542
602.777771
565.555542
563.333313
565.555542
560.555542
547.222229
574.444397
611.666626
601.666626
582.777771
629.444397
576.666626
621.111084
579.444397
592.222229
573.888855
652.222168
577.222229
617.222168
595.000000
579.444397
570.555542
585.555542
572.777771
576.666626
557.777771
594.444397
637.777771
576.666626
615.555542
595.000000
595.000000
589.444397
596.111084
568.888855
618.333313
553.888855
597.777771
561.666626
566.111084
578.333313
593.888855
573.333313
570.000000
596.111084
554.444397
590.000000
577.222229
584.444397
546.666626
608.888855
615.555542
578.333313
579.444397
583.888855
590.555542
597.222229
595.000000
563.333313
574.444397
557.777771
603.888855
592.222229
587.222229
580.555542
570.000000
602.222168
578.888855
596.666626
553.333313
605.555542
612.222168
631.111084
618.333313
611.666626
596.111084
582.777771
579.444397
633.333313
583.888855
605.555542
612.777771
592.777771
578.333313
620.555542
613.333313
607.222168
589.444397
603.888855
618.888855
625.000000
594.444397
593.333313
595.000000
596.666626
617.777771
577.222229
591.111084
598.888855
610.555542
557.222229
559.444397
588.888855
631.111084
596.111084
588.888855
617.777771
613.888855
645.000000
611.666626
601.111084
620.000000
620.555542
612.222168
600.000000
616.666626
582.777771
570.000000
596.111084
631.666626
567.777771
606.111084
628.333313
646.111084
585.000000
583.333313
600.555542
615.000000
625.000000
576.666626
605.555542
622.777771
617.222168
615.000000
588.333313
633.333313
631.666626
628.333313
600.000000
623.888855
601.111084
596.666626
617.777771
587.777771
630.000000
618.888855
591.111084
585.555542
604.444397
605.000000
617.777771
606.666626
580.555542
624.444397
630.555542
624.444397
583.888855
626.111084
599.444397
590.555542
593.888855
609.444397
604.444397
586.111084
588.333313
626.111084
621.111084
630.555542
632.222168
568.888855
610.000000
614.444397
590.000000
584.444397
604.444397
658.888855
647.222168
628.333313
623.333313
583.888855
613.888855
602.222168
612.222168
647.777771
612.222168
636.666626
641.666626
619.444397
628.333313
617.222168
653.333313
668.888855
616.666626
640.000000
618.333313
618.333313
617.777771
644.444397
616.666626
589.444397
616.666626
606.111084
619.444397
602.222168
621.666626
610.000000
628.888855
587.222229
646.666626
641.111084
618.333313
627.777771
653.333313
621.666626
658.888855
626.111084
633.888855
640.555542
672.222168
631.666626
631.111084
640.000000
641.111084
621.666626
621.666626
614.444397
660.555542
597.222229
628.888855
644.444397
603.333313
650.000000
636.111084
646.111084
617.777771
596.111084
662.777771
618.888855
594.444397
648.888855
608.333313
660.000000
617.222168
597.222229
634.444397
645.555542
625.555542
613.333313
617.777771
630.555542
633.888855
631.666626
618.333313
636.111084
611.111084
623.888855
625.000000
654.444397
621.111084
639.444397
636.666626
651.111084
580.000000
613.333313
647.777771
610.000000
612.222168
621.111084
603.888855
620.000000
641.666626
625.000000
633.888855
625.000000
620.555542
590.000000
640.000000
619.444397
632.222168
639.444397
666.111084
638.888855
618.888855
650.555542
637.777771
651.666626
637.222168
603.333313
626.111084
646.666626
625.000000
638.333313
651.111084
637.777771
626.111084
647.777771
651.111084
675.555542
633.333313
628.888855
645.000000
648.888855
620.555542
651.666626
648.888855
623.888855
608.333313
637.222168
637.777771
640.000000
624.444397
607.777771
665.555542
633.333313
642.222168
642.777771
686.666626
648.333313
633.333313
630.555542
691.111084
655.000000
648.888855
658.333313
666.111084
641.111084
638.888855
637.222168
664.444397
650.000000
637.777771
646.666626
653.333313
657.222168
647.222168
643.888855
632.222168
661.111084
678.333313
660.555542
629.444397
639.444397
626.111084
653.333313
658.333313
652.222168
617.222168
613.888855
617.777771
636.111084
609.444397
636.666626
621.111084
632.222168
657.777771
663.333313
612.222168
602.222168
648.888855
605.555542
667.777771
640.000000
599.444397
653.333313
628.888855
613.888855
609.444397
629.444397
648.888855
647.777771
663.888855
628.333313
670.000000
675.555542
637.222168
655.000000
644.444397
638.888855
622.222168
624.444397
620.555542
623.333313
682.777771
664.444397
649.444397
645.000000
685.000000
601.666626
652.222168
637.777771
634.444397
655.555542
656.111084
651.666626
683.888855
648.333313
653.333313
655.000000
677.777771
623.333313
654.444397
710.000000
668.333313
642.777771
677.222168
691.666626
651.666626
652.777771
631.111084
645.555542
676.666626
627.777771
663.888855
611.666626
661.111084
653.888855
670.555542
619.444397
645.000000
669.444397
664.444397
631.111084
662.777771
697.222168
655.000000
652.777771
657.777771
698.333313
656.666626
701.111084
681.111084
705.000000
625.000000
669.444397
678.888855
653.888855
680.000000
662.777771
693.888855
687.777771
680.000000
642.222168
649.444397
625.000000
668.333313
650.000000
666.111084
663.888855
646.666626
668.333313
677.777771
658.888855
637.777771
695.000000
700.000000
665.555542
678.333313
632.222168
660.555542
674.444397
679.444397
675.000000
650.555542
695.000000
655.555542
666.111084
637.222168
666.666626
676.666626
663.333313
685.000000
665.000000
648.333313
675.000000
667.777771
666.666626
667.777771
671.111084
650.555542
667.777771
734.444397
689.444397
647.777771
678.333313
648.333313
667.777771
680.000000
678.888855
648.888855
628.888855
643.333313
668.888855
667.222168
683.888855
672.222168
683.333313
690.555542
662.777771
666.111084
692.222168
693.333313
698.888855
639.444397
683.888855
703.333313
701.666626
663.333313
701.111084
705.555542
690.555542
627.777771
685.000000
679.444397
679.444397
677.777771
686.111084
714.444397
673.333313
716.111084
687.777771
674.444397
750.000000
669.444397
709.444397
686.666626
691.666626
678.888855
700.000000
705.000000
707.222168
710.555542
725.555542
704.444397
694.444397
687.777771
652.777771
725.000000
672.777771
677.222168
683.888855
682.222168
652.777771
683.888855
627.777771
700.000000
733.333313
705.000000
681.666626
675.000000
647.222168
713.888855
672.777771
721.111084
698.333313
718.888855
668.333313
667.222168
697.222168
688.888855
698.333313
718.888855
716.666626
693.333313
686.111084
691.111084
688.888855
695.555542
723.888855
660.555542
692.777771
718.333313
712.222168
702.222168
673.888855
696.666626
701.666626
690.000000
674.444397
652.222168
660.000000
711.666626
680.555542
688.333313
677.777771
688.333313
683.888855
697.222168
694.444397
680.000000
740.555542
794.444397
856.666626
834.444397
774.999939
764.444397
713.333313
708.333313
714.444397
712.222168
725.000000
640.555542
690.555542
715.555542
683.888855
716.666626
688.888855
680.000000
696.111084
640.555542
720.555542
725.000000
690.000000
706.111084
685.000000
658.333313
737.777771
668.333313
668.333313
671.666626
683.888855
645.555542
708.333313
727.222168
705.555542
696.111084
697.222168
677.777771
751.111084
667.777771
696.666626
678.333313
688.888855
693.888855
706.666626
726.666626
648.888855
670.000000
703.888855
715.555542
681.111084
754.444397
707.777771
692.777771
721.666626
728.888855
712.222168
635.555542
689.444397
735.555542
712.777771
714.444397
745.555542
680.555542
700.555542
718.333313
721.111084
675.555542
678.333313
691.111084
675.555542
692.222168
655.555542
676.111084
701.111084
721.111084
726.666626
717.222168
685.555542
719.444397
713.888855
686.666626
726.666626
700.000000
683.333313
680.555542
738.888855
734.444397
716.111084
687.222168
732.222168
712.222168
660.555542
711.111084
688.333313
733.333313
713.333313
720.000000
733.333313
726.111084
721.111084
717.777771
697.222168
686.111084
700.000000
713.888855
680.555542
712.777771
695.000000
739.444397
736.111084
733.333313
740.555542
757.777771
731.111084
673.888855
698.333313
719.444397
719.444397
678.333313
706.666626
725.000000
707.222168
677.777771
710.000000
731.666626
720.000000
701.111084
758.888855
738.333313
668.888855
735.000000
720.000000
660.000000
720.555542
693.888855
716.666626
712.222168
689.444397
706.111084
673.333313
695.000000
724.444397
697.222168
704.444397
736.111084
707.777771
678.888855
694.444397
722.222168
766.111084
688.333313
705.555542
723.888855
709.444397
685.000000
704.444397
735.000000
688.333313
752.777771
724.444397
697.777771
723.333313
698.333313
690.555542
717.777771
746.666626
718.888855
711.666626
734.444397
688.888855
703.333313
704.444397
699.444397
754.444397
723.888855
688.888855
703.888855
740.555542
743.888855
703.888855
723.333313
769.999939
761.111084
687.222168
733.333313
725.000000
711.111084
728.333313
736.111084
738.333313
736.666626
707.222168
690.555542
713.333313
706.111084
799.444397
730.000000
723.888855
732.777771
794.444397
743.888855
717.777771
727.777771
716.111084
731.666626
731.666626
743.333313
712.222168
727.222168
722.777771
726.666626
733.333313
722.777771
670.000000
733.333313
734.444397
746.666626
707.222168
707.777771
688.888855
735.000000
750.555542
715.555542
723.888855
721.666626
717.777771
747.777771
740.555542
722.222168
707.222168
721.666626
775.555542
707.777771
708.888855
729.444397
724.444397
722.777771
707.777771
763.333313
741.666626
685.000000
733.888855
733.333313
747.222168
716.666626
696.111084
746.111084
783.888855
753.333313
757.222168
740.000000
788.888855
740.555542
731.111084
702.777771
696.666626
745.555542
723.888855
757.777771
733.888855
692.222168
745.000000
735.000000
728.888855
695.000000
742.222168
731.111084
720.555542
744.444397
724.444397
767.777771
740.000000
750.000000
740.000000
726.666626
730.000000
756.666626
756.666626
721.111084
747.777771
725.000000
747.222168
756.111084
736.111084
731.111084
754.444397
724.444397
723.333313
710.000000
744.444397
748.333313
712.222168
743.333313
725.555542
755.555542
730.000000
697.777771
725.000000
778.888855
752.222168
722.222168
712.777771
701.111084
740.000000
746.666626
753.888855
771.111084
781.666626
736.666626
743.333313
754.444397
697.777771
731.666626
717.777771
763.333313
732.777771
741.666626
724.444397
720.555542
748.333313
751.666626
741.666626
744.444397
745.555542
798.888855
766.111084
767.222168
787.222168
739.444397
702.222168
747.222168
771.111084
743.888855
766.666626
745.000000
755.555542
753.333313
772.222168
727.777771
723.333313
782.777771
781.666626
754.444397
745.555542
717.222168
742.777771
751.666626
743.888855
741.666626
760.000000
745.555542
752.222168
763.333313
731.666626
751.666626
734.444397
798.888855
761.666626
715.555542
752.777771
757.777771
773.333313
749.444397
767.777771
720.555542
745.555542
710.000000
737.222168
724.444397
736.111084
713.333313
712.777771
750.555542
761.666626
772.777771
769.999939
771.111084
785.555542
763.888855
715.000000
715.555542
774.444397
774.444397
768.333313
748.888855
742.222168
716.111084
769.999939
789.444397
727.222168
769.999939
740.000000
764.444397
741.666626
773.333313
744.444397
766.666626
746.111084
728.333313
766.111084
757.777771
726.666626
794.999939
746.666626
757.777771
711.666626
753.333313
801.666626
796.666626
741.666626
760.555542
779.999939
779.999939
722.222168
754.444397
752.777771
774.999939
737.222168
788.333313
738.888855
769.999939
757.222168
775.555542
781.666626
776.111084
729.444397
742.777771
739.444397
780.555542
767.222168
781.666626
748.333313
709.444397
730.000000
794.999939
804.444397
746.666626
772.777771
763.333313
773.333313
751.111084
779.999939
779.444397
811.666626
797.777771
797.777771
789.999939
733.333313
797.222168
752.222168
747.777771
760.000000
774.999939
788.888855
786.111084
761.111084
755.555542
784.444397
766.111084
715.000000
807.777771
753.888855
802.777771
756.111084
770.555542
760.000000
765.000000
730.000000
824.444397
751.111084
716.111084
731.111084
740.000000
794.444397
790.555542
789.999939
783.333313
849.999939
797.222168
788.888855
764.444397
777.777771
753.888855
776.111084
777.222168
755.000000
747.222168
796.111084
776.111084
781.666626
784.999939
786.111084
765.555542
769.444397
810.555542
762.777771
775.555542
785.555542
778.888855
807.222168
788.888855
786.111084
758.333313
832.777771
764.444397
803.333313
792.777771
794.999939
755.555542
787.222168
779.999939
743.333313
752.222168
771.666626
792.222168
741.666626
737.777771
803.333313
806.666626
765.000000
839.999939
752.222168
796.111084
763.888855
818.333313
752.777771
776.111084
785.555542
776.666626
791.666626
797.222168
787.222168
830.555542
777.777771
745.000000
802.777771
769.444397
779.999939
785.555542
792.222168
801.111084
756.666626
787.777771
778.888855
788.888855
777.222168
797.222168
787.777771
809.444397
820.555542
811.666626
799.444397
755.555542
803.888855
787.222168
813.333313
778.888855
798.888855
768.333313
770.555542
806.111084
762.777771
804.444397
734.444397
782.777771
796.666626
793.333313
808.888855
756.666626
813.333313
703.888855
752.222168
725.555542
767.222168
736.111084
755.555542
802.777771
794.444397
812.222168
836.111084
789.444397
804.444397
841.111084
786.111084
741.111084
782.222168
736.666626
772.222168
768.333313
799.999939
752.222168
836.111084
784.999939
770.555542
808.333313
829.999939
821.111084
816.111084
826.666626
808.333313
802.777771
802.777771
777.777771
820.555542
797.222168
798.333313
756.666626
787.777771
803.333313
816.111084
818.888855
778.333313
829.444397
801.666626
785.555542
778.333313
819.444397
811.111084
812.222168
812.222168
774.999939
773.333313
808.888855
803.333313
817.777771
825.555542
832.777771
821.111084
801.666626
788.888855
777.222168
798.333313
796.666626
804.444397
828.333313
809.444397
794.444397
838.888855
789.444397
786.111084
808.333313
842.222168
818.333313
859.444397
831.111084
818.333313
822.777771
852.222168
854.444397
843.888855
819.999939
779.999939
813.888855
801.666626
809.444397
796.666626
790.555542
786.666626
822.777771
817.222168
823.333313
837.777771
821.666626
798.888855
782.777771
841.666626
819.999939
814.444397
797.777771
789.999939
805.555542
807.222168
798.888855
813.333313
816.111084
823.888855
822.777771
853.888855
816.666626
798.333313
819.999939
755.000000
792.777771
792.222168
857.222168
787.222168
806.111084
811.666626
808.888855
813.888855
845.555542
803.888855
844.444397
828.333313
787.777771
847.222168
838.888855
851.111084
801.111084
825.555542
841.666626
863.888855
842.777771
860.555542
808.333313
815.555542
826.111084
798.333313
791.666626
817.777771
851.111084
829.444397
854.444397
813.333313
842.777771
798.333313
859.999939
871.666626
821.666626
840.555542
841.111084
835.555542
836.111084
834.999939
825.555542
823.333313
816.111084
854.999939
822.222168
836.666626
810.555542
820.555542
824.999939
862.777771
814.444397
818.888855
811.111084
828.333313
834.444397
807.222168
847.222168
872.777771
814.444397
787.777771
788.888855
841.666626
776.666626
794.999939
834.444397
828.888855
793.333313
816.111084
809.999939
827.222168
842.222168
811.111084
763.888855
812.777771
848.888855
776.111084
841.111084
808.333313
816.111084
860.555542
820.555542
837.222168
827.222168
791.666626
773.333313
818.888855
791.111084
813.888855
805.555542
824.999939
832.777771
814.999939
782.222168
791.666626
803.333313
799.999939
807.222168
823.888855
816.666626
841.111084
818.333313
867.222168
798.333313
801.666626
812.222168
856.666626
837.777771
857.777771
846.111084
868.333313
813.888855
825.555542
848.888855
830.555542
817.222168
806.666626
811.111084
848.333313
846.666626
826.111084
819.444397
821.666626
824.999939
785.555542
836.666626
880.555542
839.999939
828.888855
860.555542
820.555542
829.999939
883.888855
855.555542
814.999939
851.666626
809.999939
808.888855
808.333313
889.444397
833.333313
878.333313
854.999939
873.333313
857.777771
829.444397
861.666626
882.777771
849.999939
898.888855
831.666626
827.777771
810.555542
818.333313
851.111084
783.888855
832.222168
797.222168
798.333313
803.888855
861.666626
806.111084
841.666626
829.999939
811.666626
838.888855
841.111084
882.222168
821.666626
841.666626
839.444397
843.333313
872.222168
807.222168
853.333313
823.888855
855.555542
813.888855
837.222168
862.222168
898.333313
866.111084
873.888855
864.999939
821.666626
829.999939
778.888855
871.111084
878.333313
819.999939
827.222168
835.555542
831.666626
806.666626
854.444397
847.222168
882.777771
828.888855
853.333313
840.555542
835.555542
803.888855
845.555542
883.888855
881.666626
839.999939
836.666626
848.333313
854.444397
850.555542
871.111084
832.777771
851.666626
865.555542
883.888855
855.555542
861.666626
859.444397
833.888855
854.444397
820.555542
850.555542
869.444397
842.777771
853.888855
844.444397
829.999939
832.777771
852.222168
846.111084
846.666626
843.888855
820.555542
814.444397
869.444397
807.222168
852.777771
863.888855
863.888855
863.888855
839.444397
876.666626
829.444397
819.444397
813.333313
817.777771
822.777771
871.666626
857.777771
864.444397
821.666626
823.888855
858.888855
863.333313
810.555542
851.111084
868.333313
826.111084
822.222168
899.444397
843.888855
816.111084
853.333313
877.222168
877.777771
854.444397
864.999939
805.555542
833.333313
864.999939
854.999939
850.555542
868.333313
862.222168
814.444397
817.222168
830.555542
861.666626
875.555542
871.666626
814.444397
840.555542
806.666626
854.999939
834.444397
832.222168
788.888855
857.777771
836.666626
858.333313
789.444397
845.555542
862.222168
848.888855
814.999939
833.888855
828.888855
841.666626
825.555542
786.666626
842.222168
763.333313
843.888855
827.222168
828.333313
824.999939
872.222168
807.222168
796.666626
838.333313
874.999939
847.222168
821.666626
821.666626
761.666626
772.222168
720.555542
671.666626
712.777771
682.222168
640.000000
615.555542
599.444397
612.222168
580.555542
553.888855
598.333313
570.555542
563.888855
567.222229
522.222229
567.777771
592.222229
550.000000
572.777771
553.888855
572.222229
538.888855
526.111084
548.333313
566.666626
540.555542
546.111084
572.777771
518.888855
557.222229
568.888855
582.222229
566.111084
568.888855
562.222229
559.444397
545.000000
545.000000
544.444397
550.000000
543.888855
548.888855
533.888855
562.222229
522.222229
536.111084
565.000000
548.888855
547.777771
535.000000
544.444397
557.222229
545.555542
533.888855
518.888855
556.666626
540.000000
551.666626
563.888855
545.555542
543.888855
587.777771
522.222229
556.111084
537.777771
507.222198
522.222229
535.555542
563.333313
540.000000
518.888855
509.444427
563.888855
522.222229
532.777771
505.555542
561.666626
588.333313
538.333313
509.444427
550.000000
556.111084
514.444397
510.555542
548.888855
523.333313
504.999969
534.444397
496.666656
533.333313
547.222229
545.555542
561.111084
547.222229
519.444397
526.111084
539.444397
565.555542
552.222229
538.888855
558.888855
527.222229
525.555542
532.777771
511.666656
548.333313
549.444397
522.777771
513.333313
553.333313
538.333313
530.000000
536.111084
533.333313
484.999969
506.111084
532.777771
567.777771
559.444397
541.666626
581.111084
603.888855
553.333313
521.111084
465.555542
503.888855
470.555542
443.888885
451.666656
470.555542
452.777771
465.555542
477.777771
566.111084
586.111084
572.777771
493.333313
351.666656
261.111115
243.333328
259.444427
253.888885
230.555542
224.999985
242.222214
267.222198
246.666656
249.444427
242.222214
251.111099
240.555542
242.777771
239.444427
250.555542
222.777771
246.111099
238.888885
227.777771
227.222214
237.777771
253.333328
243.333328
256.111115
244.444427
253.333328
257.222198
237.777771
270.000000
253.333328
243.333328
263.888885
230.555542
239.444427
247.777771
245.555542
242.222214
224.999985
233.888885
254.999985
232.777771
257.777771
234.999985
259.444427
246.111099
220.555542
247.222214
229.999985
247.222214
251.666656
257.777771
220.555542
227.222214
262.222198
248.888885
239.444427
258.333313
248.333328
252.777771
251.666656
256.666656
236.666656
222.222214
244.444427
248.333328
208.888885
220.555542
214.999985
246.666656
247.777771
241.111099
242.222214
234.444443
240.555542
236.666656
244.444427
258.333313
258.888885
256.111115
232.777771
265.000000
247.777771
239.999985
246.111099
218.333328
256.111115
243.888885
259.444427
242.222214
249.999985
242.777771
236.666656
239.999985
236.666656
238.888885
247.222214
248.888885
260.000000
254.999985
239.999985
239.999985
239.999985
247.777771
239.999985
249.444427
246.111099
239.999985
259.444427
233.333328
233.333328
255.555542
262.777771
242.222214
241.111099
256.666656
261.111115
242.222214
263.888885
263.333313
246.666656
240.555542
235.555542
209.999985
225.555542
231.111099
250.555542
235.555542
237.222214
237.777771
270.000000
244.444427
227.222214
234.999985
247.777771
241.666656
234.999985
247.777771
231.111099
245.555542
237.777771
232.777771
228.888885
221.666656
224.444443
251.111099
241.666656
269.444427
251.666656
301.666656
262.222198
229.999985
251.111099
261.111115
275.000000
251.666656
244.444427
244.999985
225.555542
231.111099
203.333328
223.333328
221.666656
205.555542
202.222214
190.555542
197.222214
180.000000
158.888885
176.111099
178.333328
193.888885
204.444443
250.555542
350.000000
398.333313
471.111084
610.000000
475.555542
204.444443
138.888885
125.555550
124.999992
131.666656
118.888885
130.000000
137.222214
141.111099
151.111099
132.777771
133.333328
128.888885
138.333328
130.555557
125.555550
133.888885
136.111099
130.555557
128.333328
114.444443
133.888885
119.444443
131.111099
143.333328
137.222214
137.222214
135.000000
137.222214
145.000000
102.222221
131.666656
128.888885
129.444443
133.333328
136.666656
133.888885
130.000000
126.111107
140.000000
108.333328
109.999992
117.222221
119.999992
115.555550
128.333328
127.222214
135.555557
117.777771
112.222221
123.888885
150.000000
123.888885
128.888885
137.222214
123.333328
122.222214
142.777771
106.666664
125.555550
140.000000
121.666664
127.777771
115.555550
119.444443
143.333328
124.444443
130.555557
137.222214
131.111099
121.666664
126.666664
135.000000
125.555550
140.555557
122.777771
122.777771
130.555557
131.666656
137.777771
144.444443
134.444443
135.000000
130.000000
118.333328
137.777771
124.444443
144.444443
137.222214
136.111099
130.555557
131.666656
127.222214
138.333328
141.666656
147.222214
118.888885
167.222214
154.444443
142.777771
126.666664
135.000000
142.777771
136.666656
141.666656
130.000000
124.444443
135.000000
140.555557
137.222214
133.333328
160.000000
148.333328
150.555542
134.444443
152.222214
140.555557
124.999992
123.333328
117.777771
145.000000
133.333328
147.222214
135.000000
141.111099
128.333328
143.888885
141.111099
158.333328
138.888885
123.333328
131.111099
135.555557
128.888885
118.333328
127.222214
135.555557
145.555557
132.222214
133.888885
141.666656
136.666656
138.888885
133.333328
138.888885
137.777771
159.444443
121.666664
143.333328
126.666664
134.444443
156.111099
142.222214
141.666656
155.000000
146.111099
137.777771
148.888885
152.222214
137.777771
126.666664
132.777771
136.666656
142.777771
126.111107
127.222214
158.333328
155.555542
116.111107
137.777771
153.888885
130.555557
137.777771
140.555557
121.111107
126.111107
136.666656
136.111099
141.666656
140.000000
119.444443
140.000000
131.666656
139.444443
150.000000
134.444443
126.666664
140.555557
142.222214
156.111099
128.888885
140.000000
131.111099
141.111099
124.444443
155.000000
139.444443
143.333328
145.555557
154.444443
125.555550
156.666656
132.777771
157.222214
133.888885
134.444443
153.888885
159.444443
151.666656
160.555542
163.333328
148.333328
162.222214
132.222214
150.000000
163.333328
137.777771
141.666656
146.666656
161.111099
143.333328
157.777771
147.777771
165.000000
161.666656
150.000000
157.777771
141.111099
146.666656
166.111099
131.666656
141.666656
131.111099
114.444443
122.777771
123.888885
126.666664
123.333328
133.333328
147.777771
167.777771
159.444443
251.666656
320.555542
343.888885
212.777771
129.444443
126.111107
104.444443
112.222221
113.888885
111.666664
106.666664
113.888885
106.111107
131.111099
127.777771
123.333328
122.777771
113.333328
116.666664
113.888885
127.222214
136.666656
110.555550
101.111107
106.111107
111.111107
111.111107
101.666664
106.111107
96.111107
103.888885
103.333328
100.555550
112.777771
101.666664
104.999992
104.444443
118.888885
93.888885
126.111107
120.555550
104.444443
114.444443
113.333328
123.888885
117.222221
123.333328
113.888885
123.888885
106.666664
112.222221
99.999992
117.222221
107.777771
100.555550
109.999992
114.999992
131.666656
99.444443
104.999992
94.444443
113.333328
102.777771
120.555550
118.333328
127.222214
109.444443
111.666664
102.222221
110.555550
127.222214
123.888885
102.222221
116.111107
122.777771
123.333328
114.444443
114.444443
111.111107
103.333328
112.777771
114.999992
104.444443
127.222214
121.111107
113.888885
104.999992
104.999992
116.666664
103.888885
112.777771
117.777771
100.555550
109.444443
118.888885
113.888885
103.888885
99.999992
126.666664
112.222221
106.111107
113.333328
108.888885
114.999992
103.888885
126.111107
121.666664
98.888885
109.444443
111.111107
116.666664
108.888885
118.888885
107.222221
111.111107
116.111107
127.777771
110.555550
130.555557
111.111107
114.999992
117.222221
103.333328
114.444443
127.222214
114.444443
107.222221
106.666664
115.555550
119.999992
130.000000
111.666664
118.333328
131.666656
127.777771
114.999992
119.444443
104.999992
111.666664
107.222221
118.333328
95.000000
102.777771
111.666664
93.888885
110.555550
104.444443
107.777771
125.555550
126.111107
112.777771
112.777771
108.333328
117.222221
114.999992
99.444443
113.333328
145.000000
110.555550
109.444443
116.111107
108.888885
114.444443
115.555550
118.333328
118.333328
83.333328
99.999992
113.333328
118.888885
132.222214
109.444443
121.111107
118.333328
91.111107
105.555550
103.333328
117.222221
102.222221
111.666664
114.444443
114.444443
117.222221
133.888885
142.222214
160.555542
145.000000
129.444443
138.888885
128.888885
130.000000
153.888885
158.888885
148.333328
130.000000
84.444443
101.666664
97.222221
100.555550
89.444443
88.333328
80.000000
62.777775
80.555550
72.777779
81.111107
76.111107
102.777771
77.777771
86.111107
82.777771
91.666664
56.666664
70.555550
74.444443
77.777771
63.333332
59.444443
64.444443
55.555553
63.888885
54.444443
63.888885
62.222221
67.222221
65.000000
58.888885
67.777779
63.333332
93.888885
102.777771
115.555550
75.000000
39.444443
32.777775
33.333332
20.555555
19.444443
26.111111
28.888887
20.000000
19.444443
17.222221
20.000000
18.333332
22.222221
22.777777
19.444443
14.999999
19.444443
11.666666
12.777778
16.111111
15.555555
22.222221
17.777777
21.666666
21.666666
22.222221
26.111111
27.777777
25.555555
26.111111
29.444443
29.444443
28.333332
29.999998
24.444443
23.333332
23.888887
22.222221
25.555555
16.111111
15.555555
23.888887
10.555555
14.999999
18.888887
16.666666
22.777777
15.555555
17.777777
16.666666
22.222221
16.111111
8.888888
end of experiment
