VAMAS Surface Chemical Analysis Standard Data Transfer Format 1988 May 4
Ulvac-Phi,Inc.
Quantes 
XK 
HSu 
3
exported from PHI-MultiPak
 
 
NORM
REGULAR
1 
0
0
0
0
0
1 
Block No.1 
Sample ID : 1
2022 
11 
29 
-1
-1
-1
-1
2
IntensityCalCoeff: 107.072000 0.591000 
0
XPS
Cr mono
5414.80
52.959999
2000
800
0.000000
90.000000
FAT
280.000000
5.000000
4.450000
0
100.000000
100.000000
45.000000
270.000000
Sur

-1
Binding Energy
eV
5000.000000
-1.000000
1
Intensity
c/s
pulse counting
1.800000
1
0
3.101349e-003
90
359.993591
0
5001
6.666667
888.888855
264.444427
290.555542
282.222198
271.111115
273.333313
281.111115
285.555542
253.333328
271.666656
268.888885
299.444427
265.000000
292.222198
288.333313
274.444427
252.222214
248.888885
278.333313
273.333313
301.111084
258.333313
257.222198
298.888885
285.000000
276.666656
310.555542
281.111115
280.555542
283.888885
298.333313
286.111115
291.666656
279.444427
246.666656
266.111115
290.000000
285.000000
298.333313
295.000000
311.111084
283.888885
277.777771
288.888885
295.555542
279.444427
287.777771
295.000000
288.333313
312.777771
317.777771
273.888885
306.666656
291.111115
277.222198
286.666656
276.666656
295.000000
289.444427
274.444427
292.222198
273.333313
271.111115
282.222198
280.555542
274.444427
263.333313
280.000000
256.666656
283.888885
293.333313
303.333313
293.888885
295.000000
289.444427
280.555542
296.666656
278.888885
290.555542
269.444427
284.444427
282.222198
295.555542
267.777771
284.444427
303.333313
291.111115
280.555542
292.777771
283.333313
266.111115
258.888885
286.666656
294.444427
296.666656
289.444427
293.333313
285.000000
293.888885
333.888885
295.000000
306.111084
282.777771
272.222198
278.333313
280.555542
272.222198
261.666656
253.888885
264.444427
275.000000
266.666656
274.444427
268.888885
272.222198
258.888885
242.777771
254.444427
271.666656
282.222198
256.666656
239.444427
278.888885
281.666656
251.111099
261.666656
247.777771
259.444427
287.222198
267.222198
273.333313
248.333328
217.777771
252.222214
261.666656
255.555542
241.666656
261.666656
263.888885
268.333313
238.333328
236.666656
256.111115
239.999985
256.111115
285.555542
268.333313
236.666656
252.777771
279.444427
261.666656
271.111115
258.333313
257.777771
258.333313
265.555542
271.666656
267.222198
251.111099
240.555542
238.333328
239.444427
270.000000
259.444427
244.444427
247.222214
243.888885
272.777771
265.000000
237.777771
259.444427
272.222198
265.000000
268.333313
265.000000
241.111099
254.444427
254.444427
256.111115
245.555542
236.666656
264.444427
263.333313
265.555542
252.777771
252.777771
266.666656
249.444427
223.333328
242.222214
224.999985
248.888885
241.666656
254.444427
247.777771
237.777771
243.888885
248.888885
240.555542
252.777771
240.555542
241.666656
230.555542
237.222214
243.333328
237.222214
229.999985
219.444443
223.888885
226.111099
244.999985
244.444427
233.333328
239.444427
234.999985
242.777771
233.333328
235.555542
254.444427
266.666656
219.999985
221.666656
246.666656
234.444443
239.444427
231.666656
217.777771
268.333313
248.888885
248.888885
259.444427
263.333313
209.999985
228.888885
236.666656
249.999985
241.666656
254.444427
226.111099
224.444443
238.888885
232.777771
228.333328
229.999985
219.444443
202.222214
231.111099
225.555542
212.222214
216.666656
231.111099
208.888885
238.333328
224.999985
226.666656
212.777771
248.333328
209.999985
207.777771
216.111099
224.999985
207.777771
202.777771
214.999985
202.222214
217.222214
213.888885
200.555542
220.555542
213.888885
231.111099
215.555542
239.999985
196.111099
226.111099
212.777771
223.333328
212.777771
212.777771
208.333328
208.888885
212.777771
203.333328
214.444443
225.555542
216.666656
241.111099
229.444443
214.999985
227.777771
214.999985
217.222214
244.999985
200.555542
222.222214
211.111099
233.888885
232.222214
208.333328
219.444443
215.555542
222.777771
207.777771
222.777771
202.222214
186.666656
207.222214
202.777771
211.111099
219.999985
213.333328
195.555542
226.111099
190.000000
206.111099
222.777771
203.333328
211.111099
210.555542
246.666656
208.888885
218.888885
204.999985
213.333328
199.999985
211.666656
219.999985
226.666656
209.999985
232.222214
237.222214
224.444443
214.444443
236.111099
220.555542
210.555542
217.222214
252.222214
244.999985
221.111099
221.666656
231.111099
239.444427
226.666656
204.444443
214.999985
218.888885
212.777771
219.999985
219.999985
229.999985
212.222214
219.444443
223.333328
244.999985
223.333328
222.777771
214.999985
253.888885
228.333328
233.888885
238.333328
213.333328
219.999985
224.999985
226.666656
203.888885
238.333328
221.111099
228.333328
249.999985
221.666656
231.666656
236.666656
228.888885
215.555542
234.444443
209.999985
190.000000
241.111099
217.777771
216.666656
228.333328
219.999985
239.999985
201.666656
234.999985
211.666656
222.777771
229.999985
223.333328
234.999985
224.444443
241.111099
213.333328
236.111099
238.333328
220.555542
232.777771
246.111099
238.888885
217.777771
233.333328
260.555542
264.444427
236.111099
241.111099
241.111099
242.222214
238.333328
236.111099
231.111099
247.222214
237.222214
239.999985
236.666656
226.666656
229.444443
222.777771
246.111099
228.888885
246.666656
263.888885
248.333328
236.111099
222.777771
237.777771
253.333328
257.222198
236.666656
252.777771
231.666656
244.999985
237.222214
223.888885
234.999985
246.666656
250.555542
251.111099
205.555542
236.666656
209.444443
251.666656
244.999985
241.111099
235.555542
253.333328
246.111099
216.111099
249.444427
224.444443
260.000000
251.111099
251.666656
247.777771
244.444427
244.444427
246.666656
214.999985
251.666656
236.666656
233.888885
233.333328
230.555542
233.888885
230.555542
243.888885
224.999985
237.222214
212.777771
238.888885
244.444427
241.666656
257.777771
238.888885
253.333328
248.888885
245.555542
239.999985
257.777771
237.777771
247.777771
245.555542
248.888885
250.555542
252.777771
253.333328
233.333328
232.777771
248.888885
239.444427
280.000000
246.666656
239.444427
239.999985
235.555542
258.333313
220.555542
238.888885
269.444427
241.111099
229.999985
251.111099
255.555542
262.222198
249.444427
242.777771
224.444443
275.555542
255.555542
239.999985
271.666656
246.666656
262.777771
278.333313
280.000000
258.888885
241.111099
242.777771
279.444427
260.555542
267.777771
227.777771
233.333328
242.222214
261.666656
249.444427
213.888885
237.222214
265.555542
248.333328
270.555542
228.333328
253.888885
241.111099
258.888885
254.444427
282.222198
265.000000
252.222214
244.999985
252.222214
281.111115
296.666656
237.222214
263.333313
265.555542
253.888885
246.666656
260.555542
236.111099
253.888885
242.222214
257.222198
283.333313
234.444443
252.777771
234.444443
260.000000
269.444427
285.555542
261.666656
271.111115
268.333313
249.999985
270.555542
261.666656
248.888885
263.888885
272.222198
273.888885
266.111115
262.222198
246.666656
265.555542
265.555542
270.000000
271.111115
281.111115
262.777771
267.222198
267.222198
263.333313
261.111115
282.777771
248.333328
262.777771
261.111115
243.333328
243.333328
258.888885
277.777771
275.000000
292.222198
287.777771
267.222198
282.777771
294.444427
251.111099
259.444427
277.777771
258.888885
265.555542
268.333313
273.333313
251.111099
262.222198
247.777771
288.888885
276.111115
272.777771
280.000000
263.333313
253.888885
278.333313
273.888885
275.000000
291.666656
278.333313
268.333313
264.444427
272.222198
277.222198
271.666656
291.111115
280.000000
255.555542
256.111115
258.888885
263.333313
280.555542
266.111115
273.333313
277.777771
287.777771
286.111115
288.888885
257.222198
301.666656
268.888885
254.444427
267.777771
263.888885
281.666656
268.888885
297.222198
303.888885
291.666656
293.333313
266.666656
263.333313
293.333313
268.888885
257.222198
286.111115
268.888885
263.888885
258.333313
288.333313
269.444427
290.555542
273.333313
293.888885
275.555542
279.444427
280.555542
276.111115
263.333313
256.666656
251.111099
263.888885
281.666656
257.777771
294.444427
299.444427
265.555542
257.222198
280.000000
300.555542
290.555542
247.777771
268.333313
287.222198
308.333313
287.777771
297.222198
265.555542
280.000000
270.555542
292.777771
305.555542
299.444427
275.555542
294.444427
277.222198
292.777771
268.888885
272.777771
265.555542
281.111115
283.333313
284.444427
270.000000
276.111115
295.000000
266.666656
283.888885
296.666656
271.666656
310.000000
300.000000
289.444427
296.666656
284.444427
297.222198
283.888885
295.000000
282.777771
257.222198
270.000000
279.444427
282.777771
267.222198
275.000000
290.555542
302.777771
266.111115
274.444427
298.333313
289.444427
273.888885
287.777771
291.111115
310.555542
288.888885
277.222198
275.555542
292.777771
278.333313
305.555542
277.222198
283.888885
278.888885
275.000000
294.444427
305.000000
281.111115
305.555542
322.222198
316.666656
320.000000
318.888885
305.000000
284.444427
294.444427
296.666656
266.666656
267.777771
307.222198
296.111115
271.111115
296.111115
281.666656
295.000000
272.222198
294.444427
315.000000
264.444427
277.222198
284.444427
302.222198
286.111115
286.111115
287.222198
275.555542
297.777771
280.000000
303.888885
280.555542
293.333313
273.333313
273.888885
288.888885
284.444427
293.888885
308.888885
307.222198
321.666656
308.888885
296.111115
282.222198
282.777771
283.888885
284.444427
288.888885
295.555542
327.777771
297.222198
282.222198
311.111084
317.777771
295.555542
272.777771
282.222198
302.777771
293.888885
314.444427
311.666656
310.555542
292.222198
296.666656
280.000000
323.333313
308.333313
313.333313
307.222198
303.888885
312.222198
317.777771
285.000000
345.555542
301.666656
283.888885
280.555542
305.000000
314.444427
314.444427
301.666656
315.555542
298.333313
312.222198
290.555542
305.000000
292.222198
313.888885
331.111084
288.333313
288.888885
297.777771
300.000000
309.444427
277.222198
322.222198
309.444427
270.000000
301.111084
310.555542
295.000000
313.888885
298.333313
302.777771
281.111115
305.000000
296.666656
308.333313
296.666656
311.111084
291.666656
304.444427
290.000000
309.444427
291.666656
296.666656
303.333313
307.777771
312.777771
296.111115
324.444427
292.222198
335.555542
323.888885
300.555542
313.888885
331.666656
301.111084
326.111084
312.777771
280.555542
290.555542
305.555542
313.888885
313.888885
332.222198
328.333313
298.333313
314.444427
343.333313
303.888885
303.888885
333.333313
340.555542
310.555542
303.333313
301.111084
328.333313
307.777771
317.222198
343.333313
342.222198
313.888885
337.222198
339.444427
327.777771
321.111084
295.555542
323.333313
290.555542
302.777771
321.111084
304.444427
314.444427
318.888885
331.111084
346.666656
323.333313
325.555542
320.000000
302.777771
315.555542
323.888885
306.666656
320.555542
312.222198
362.222198
337.222198
313.888885
300.555542
318.888885
305.555542
305.000000
314.444427
307.777771
320.000000
356.111084
334.444427
351.666656
343.333313
328.333313
330.555542
327.222198
341.111084
316.666656
321.111084
314.444427
318.888885
298.333313
323.333313
340.000000
347.222198
330.555542
329.444427
338.888885
327.222198
326.111084
342.222198
351.666656
332.777771
336.666656
323.333313
318.333313
328.888885
326.666656
325.555542
320.555542
334.444427
320.000000
304.444427
320.000000
353.888885
357.222198
341.111084
318.888885
351.111084
321.666656
323.333313
325.000000
326.666656
352.222198
347.777771
346.111084
340.555542
336.111084
333.333313
336.666656
319.444427
332.777771
337.222198
350.000000
328.888885
317.777771
339.444427
340.555542
314.444427
358.888885
348.888885
324.444427
330.555542
345.555542
353.888885
357.222198
351.666656
320.555542
324.444427
318.333313
332.777771
316.666656
352.222198
358.888885
346.666656
341.666656
337.777771
350.555542
334.444427
361.666656
352.222198
327.777771
374.444427
333.333313
340.555542
355.000000
352.777771
345.555542
366.666656
350.555542
333.888885
322.777771
376.111084
354.444427
352.222198
356.111084
373.888885
340.000000
340.000000
338.888885
336.666656
318.888885
329.444427
340.555542
375.000000
342.222198
337.777771
354.444427
356.111084
360.000000
341.666656
348.333313
358.888885
386.111084
370.000000
352.222198
364.444427
362.777771
391.666656
358.333313
331.666656
382.777771
336.111084
334.444427
339.444427
346.111084
366.111084
373.888885
366.666656
362.777771
352.777771
338.888885
355.555542
354.444427
360.555542
358.888885
355.555542
333.888885
336.111084
365.000000
352.222198
332.222198
330.000000
355.555542
347.222198
350.555542
355.000000
336.111084
353.888885
353.333313
355.555542
366.111084
343.888885
336.111084
370.555542
357.777771
358.888885
365.555542
347.777771
339.444427
371.666656
370.000000
384.999969
345.000000
360.555542
365.555542
365.000000
372.222198
386.666656
346.111084
342.777771
346.666656
347.777771
366.111084
350.555542
391.111084
384.444427
375.555542
330.000000
384.444427
362.777771
366.666656
352.777771
367.777771
374.444427
382.777771
374.444427
340.000000
379.444427
355.555542
354.444427
361.666656
364.444427
377.777771
351.666656
365.000000
352.777771
372.222198
372.222198
386.111084
372.222198
380.000000
388.888885
390.555542
383.888885
381.111084
382.222198
382.222198
354.444427
366.666656
367.777771
350.000000
361.666656
372.222198
351.111084
357.777771
350.555542
422.222198
394.444427
380.000000
398.333313
354.444427
399.999969
336.111084
358.333313
384.444427
368.888885
381.111084
397.777771
371.111084
379.444427
378.333313
366.666656
378.333313
374.444427
383.888885
368.333313
393.333313
383.333313
371.111084
382.222198
367.222198
371.666656
392.777771
386.111084
391.111084
391.111084
430.555542
379.444427
373.888885
380.000000
360.000000
397.222198
388.333313
376.111084
404.444427
384.444427
423.333313
390.555542
393.333313
459.444427
449.444427
547.222229
493.333313
450.555542
355.555542
404.999969
362.222198
378.333313
366.666656
378.333313
368.888885
376.666656
376.666656
363.888885
382.777771
371.666656
378.333313
380.000000
373.333313
373.888885
363.888885
344.444427
362.777771
365.555542
370.555542
386.666656
375.555542
388.333313
378.333313
402.222198
389.444427
360.000000
373.888885
376.666656
383.888885
406.666656
345.555542
372.777771
380.000000
371.111084
379.444427
389.444427
384.444427
387.777771
374.444427
371.666656
396.111084
345.000000
397.222198
398.888885
362.222198
377.222198
345.000000
372.222198
367.222198
390.555542
389.999969
361.111084
387.222198
354.444427
366.111084
374.444427
403.888885
394.444427
378.888885
387.777771
375.000000
385.555542
369.444427
401.111084
383.333313
360.555542
397.222198
396.666656
411.666656
397.777771
413.888885
423.888885
363.333313
387.222198
388.333313
414.444427
360.000000
382.222198
387.777771
372.222198
391.111084
402.222198
378.888885
365.555542
411.666656
393.333313
344.444427
380.555542
378.888885
351.666656
380.000000
360.000000
392.222198
396.111084
403.888885
376.666656
365.555542
397.777771
398.888885
342.777771
401.666656
388.333313
382.777771
416.111084
437.222198
403.333313
429.444427
386.666656
378.888885
402.777771
410.555542
406.111084
403.333313
398.888885
402.222198
383.333313
376.111084
384.999969
405.555542
389.444427
394.444427
418.888885
387.222198
392.777771
417.222198
419.999969
400.555542
398.333313
357.222198
391.111084
382.777771
386.666656
394.444427
406.666656
371.666656
367.777771
394.999969
362.777771
389.444427
367.777771
391.111084
386.666656
408.888885
358.888885
409.444427
382.222198
409.444427
378.888885
388.888885
369.444427
387.777771
387.222198
383.333313
394.999969
388.888885
363.333313
382.777771
403.888885
407.222198
364.444427
381.666656
396.666656
409.444427
400.555542
385.555542
387.222198
409.999969
401.666656
378.333313
372.777771
391.111084
382.777771
392.777771
394.999969
416.111084
377.777771
384.999969
404.999969
381.666656
372.777771
383.333313
403.888885
412.777771
380.000000
408.333313
422.777771
377.777771
442.222198
423.333313
402.777771
387.777771
402.222198
404.999969
403.333313
419.444427
377.777771
423.888885
397.777771
423.888885
428.333313
421.111084
403.333313
383.333313
419.444427
434.999969
431.111084
389.999969
424.999969
407.222198
411.666656
407.222198
421.111084
413.333313
425.555542
408.888885
370.555542
409.444427
396.111084
429.999969
444.999969
394.444427
413.888885
396.111084
389.444427
420.555542
411.666656
413.333313
426.111084
446.666656
427.777771
414.444427
414.444427
391.111084
376.666656
402.222198
388.888885
396.111084
412.777771
421.111084
416.666656
397.777771
427.222198
403.333313
444.444427
398.888885
416.111084
407.222198
423.333313
413.888885
399.444427
414.444427
420.555542
416.666656
437.777771
418.888885
429.444427
404.444427
409.999969
407.222198
388.333313
410.555542
418.333313
399.444427
429.999969
412.222198
412.222198
422.222198
423.333313
426.111084
442.777771
419.444427
435.555542
416.111084
409.444427
391.111084
438.333313
427.222198
409.999969
449.444427
389.444427
412.777771
426.666656
436.666656
416.111084
418.888885
435.555542
418.333313
418.333313
419.999969
436.111084
456.666656
457.222198
440.555542
425.555542
423.333313
420.555542
425.555542
432.222198
410.555542
381.666656
404.444427
407.222198
457.777771
411.666656
424.999969
422.222198
401.111084
411.666656
403.888885
401.111084
388.333313
406.666656
427.777771
417.222198
436.666656
393.333313
418.888885
416.111084
439.444427
426.666656
441.666656
432.222198
456.666656
429.999969
436.111084
431.666656
424.999969
424.999969
463.888885
432.222198
444.444427
404.444427
395.555542
417.777771
410.555542
422.222198
409.999969
418.333313
417.222198
432.222198
471.111084
461.666656
451.666656
430.555542
414.999969
461.111084
432.222198
437.777771
422.777771
442.222198
457.222198
449.999969
446.111084
428.333313
416.111084
409.999969
414.444427
430.555542
439.444427
461.111084
428.888885
426.666656
459.999969
447.777771
435.555542
416.666656
403.333313
440.555542
427.777771
442.222198
408.333313
444.444427
419.444427
440.555542
416.666656
421.666656
446.666656
417.222198
426.666656
438.333313
461.666656
450.555542
443.333313
444.444427
446.666656
473.888855
439.444427
453.333313
463.888885
429.444427
452.777771
444.444427
447.222198
457.777771
445.555542
438.333313
434.999969
406.111084
468.888885
474.444427
438.888885
481.111084
441.111084
476.111084
437.222198
459.444427
473.888855
457.777771
458.333313
436.666656
416.666656
444.999969
463.888885
443.333313
436.666656
464.444427
473.333313
459.444427
430.555542
443.333313
432.777771
463.888885
462.222198
439.999969
448.333313
488.888855
459.999969
429.444427
413.888885
470.555542
452.222198
439.444427
438.888885
448.888885
453.333313
467.777771
454.444427
488.333313
405.555542
467.777771
478.333313
455.555542
447.777771
462.777771
430.555542
441.666656
458.333313
428.888885
447.222198
429.444427
439.444427
446.666656
434.444427
445.555542
432.222198
439.999969
481.111084
460.555542
472.222198
429.999969
471.666656
468.888885
477.222198
431.111084
462.222198
459.444427
466.111084
456.111084
465.555542
493.333313
491.666656
491.111084
457.222198
464.999969
476.666656
471.111084
460.555542
459.444427
451.111084
463.888885
441.111084
473.333313
491.666656
457.222198
476.666656
459.999969
446.666656
477.777771
470.555542
472.777771
458.888885
453.333313
457.777771
493.333313
439.444427
484.444427
491.111084
467.777771
483.333313
472.777771
436.666656
439.444427
439.999969
449.444427
433.888885
439.999969
455.555542
481.666656
434.444427
439.999969
442.777771
459.999969
483.888855
456.111084
436.111084
436.111084
433.333313
478.333313
443.888885
437.777771
467.777771
466.666656
462.777771
426.666656
441.111084
452.777771
433.888885
413.333313
476.666656
458.333313
453.333313
473.333313
403.888885
470.555542
468.333313
453.333313
443.888885
454.444427
471.111084
473.333313
466.111084
429.999969
449.999969
449.999969
443.333313
453.333313
429.999969
467.222198
464.444427
461.111084
453.888885
473.333313
461.666656
459.444427
444.444427
456.666656
466.111084
430.555542
439.999969
448.888885
482.222198
457.222198
471.111084
441.111084
467.777771
494.999969
492.777771
473.888855
464.444427
442.777771
486.111084
466.111084
477.777771
446.111084
454.999969
454.444427
443.333313
455.555542
466.111084
461.111084
462.222198
473.888855
462.222198
447.222198
441.666656
444.444427
453.333313
501.111084
467.222198
467.222198
455.555542
493.333313
488.888855
465.555542
453.333313
464.444427
464.999969
474.999969
458.888885
450.555542
463.888885
480.555542
483.333313
472.222198
483.333313
487.777771
463.888885
472.777771
481.666656
472.777771
486.666656
458.888885
481.666656
468.888885
489.444427
473.888855
471.666656
451.666656
444.444427
463.333313
486.666656
453.888885
469.999969
473.888855
513.333313
481.111084
464.999969
467.222198
503.888855
467.777771
479.999969
476.111084
476.111084
455.555542
488.333313
459.999969
449.999969
481.666656
476.666656
476.111084
474.999969
471.111084
463.333313
449.999969
496.666656
487.777771
478.888855
478.888855
478.888855
501.111084
479.999969
474.444427
452.222198
483.333313
467.222198
462.777771
476.111084
477.777771
458.333313
448.888885
523.333313
535.000000
486.666656
477.777771
548.333313
450.555542
489.999969
481.666656
482.222198
502.777771
480.555542
486.666656
508.888855
485.555542
494.999969
504.444427
486.666656
493.333313
451.111084
511.111084
485.555542
469.444427
520.000000
484.444427
487.777771
508.888855
503.333313
472.222198
488.333313
496.111084
478.888855
469.444427
499.999969
498.888855
523.333313
484.444427
480.555542
503.888855
447.222198
515.555542
486.111084
462.777771
479.999969
507.222198
483.888855
501.111084
468.888885
489.444427
488.888855
500.555542
517.222229
470.555542
488.333313
484.444427
462.222198
484.444427
488.333313
490.555542
454.999969
518.888855
456.111084
461.111084
479.444427
482.777771
498.333313
486.111084
505.555542
501.666656
474.999969
494.444427
501.666656
484.999969
522.777771
499.444427
518.333313
487.222198
499.999969
501.111084
501.111084
484.999969
461.666656
520.000000
493.333313
479.444427
488.888855
478.888855
523.888855
472.222198
487.222198
473.888855
464.444427
485.555542
521.666626
463.333313
492.222198
488.888855
504.444427
515.555542
501.111084
508.888855
502.222198
465.555542
505.555542
511.666656
501.666656
496.666656
489.999969
478.888855
498.333313
530.555542
484.999969
499.999969
472.777771
496.111084
512.222229
505.555542
489.444427
477.222198
512.222229
495.555542
493.333313
481.666656
538.333313
503.333313
504.999969
441.111084
457.777771
479.999969
486.666656
495.555542
499.999969
509.999969
495.555542
477.777771
507.222198
487.222198
470.555542
512.777771
506.666656
495.555542
479.999969
507.777771
475.555542
502.777771
478.888855
506.111084
487.777771
478.333313
526.666626
498.333313
506.111084
499.444427
492.777771
498.333313
464.444427
474.999969
503.888855
517.222229
494.444427
497.777771
517.777771
493.333313
499.444427
490.555542
525.555542
473.888855
457.222198
488.333313
486.111084
492.222198
533.333313
506.111084
535.000000
498.333313
550.555542
533.888855
506.111084
488.888855
511.666656
498.888855
468.333313
487.222198
464.444427
514.444397
521.111084
508.888855
553.888855
523.888855
537.222229
537.222229
510.555542
500.555542
466.111084
503.333313
528.333313
521.111084
514.444397
524.444397
487.777771
517.222229
465.555542
492.222198
547.222229
502.777771
524.444397
499.444427
523.888855
523.333313
507.222198
474.999969
503.333313
522.777771
489.999969
512.777771
525.555542
517.777771
511.111084
547.222229
506.111084
485.555542
490.555542
523.888855
514.444397
502.222198
499.444427
506.666656
532.777771
474.444427
507.222198
512.222229
542.777771
528.888855
503.333313
517.777771
505.555542
513.888855
502.777771
519.444397
535.000000
537.222229
515.000000
523.333313
526.666626
524.444397
545.555542
516.666626
544.444397
504.444427
492.222198
473.888855
527.777771
502.222198
522.777771
540.555542
543.333313
497.222198
507.222198
537.777771
540.000000
511.666656
530.000000
518.333313
528.333313
519.444397
515.555542
520.555542
551.666626
490.555542
514.444397
566.666626
541.666626
516.666626
494.444427
538.888855
510.555542
499.444427
518.888855
524.444397
513.888855
531.666626
502.222198
530.555542
552.222229
536.111084
551.666626
500.555542
535.555542
533.888855
542.222229
553.888855
530.000000
532.777771
530.555542
521.111084
511.111084
506.111084
557.777771
504.444427
543.888855
523.333313
517.222229
489.999969
529.444397
530.000000
507.777771
527.777771
549.444397
500.555542
496.111084
523.888855
523.333313
503.333313
528.333313
491.666656
511.111084
505.555542
519.444397
498.333313
550.000000
556.111084
547.777771
541.666626
526.666626
516.111084
520.555542
514.444397
494.444427
527.222229
555.555542
540.555542
522.777771
502.777771
508.333313
510.555542
530.000000
529.444397
514.444397
524.444397
501.666656
550.000000
527.222229
508.888855
540.000000
530.000000
521.666626
551.111084
508.888855
511.111084
490.555542
521.111084
515.555542
531.111084
502.222198
508.888855
542.222229
554.444397
554.444397
525.000000
535.000000
547.222229
520.555542
518.888855
548.333313
551.111084
553.333313
551.666626
518.888855
525.555542
502.777771
517.777771
516.111084
522.777771
522.777771
545.555542
481.111084
521.666626
522.222229
522.777771
511.666656
537.222229
540.555542
513.888855
525.000000
511.111084
518.333313
550.555542
539.444397
568.333313
537.777771
520.555542
513.888855
533.333313
535.000000
536.666626
527.777771
541.111084
522.222229
532.777771
507.777771
582.222229
550.000000
538.888855
535.000000
560.000000
579.444397
544.444397
542.777771
536.111084
511.666656
581.111084
538.333313
536.111084
544.444397
547.222229
528.333313
556.111084
565.555542
536.111084
536.111084
524.444397
525.555542
521.666626
523.333313
550.555542
533.333313
582.777771
588.888855
541.111084
536.111084
508.333313
551.111084
563.888855
566.666626
561.111084
518.888855
565.555542
533.888855
567.777771
528.333313
535.000000
529.444397
532.222229
542.777771
527.777771
574.444397
535.000000
532.222229
567.777771
557.222229
554.444397
542.222229
561.666626
540.000000
543.333313
540.555542
523.888855
525.555542
532.777771
581.111084
535.000000
560.555542
545.555542
567.222229
561.666626
540.000000
531.666626
556.666626
550.000000
549.444397
555.000000
563.333313
527.777771
554.444397
594.444397
556.111084
556.111084
577.777771
564.444397
513.888855
523.333313
523.333313
539.444397
523.333313
533.888855
591.666626
549.444397
587.777771
556.666626
577.222229
541.111084
563.888855
546.666626
564.444397
554.444397
571.666626
541.111084
529.444397
523.333313
616.666626
573.888855
590.555542
575.555542
557.777771
587.777771
561.111084
548.333313
578.333313
561.111084
598.333313
519.444397
530.555542
510.555542
545.555542
518.888855
576.666626
551.666626
586.111084
557.777771
538.888855
545.000000
566.111084
597.222229
531.666626
525.000000
591.111084
566.666626
548.333313
553.888855
614.444397
538.888855
539.444397
517.777771
562.222229
543.888855
602.777771
578.333313
596.666626
563.333313
559.444397
568.888855
553.888855
573.333313
598.888855
537.222229
538.333313
583.333313
597.222229
568.333313
552.777771
600.000000
553.888855
546.666626
559.444397
603.333313
597.777771
583.888855
586.111084
554.444397
579.444397
578.888855
541.111084
578.888855
567.222229
581.666626
590.000000
511.666656
578.888855
588.333313
559.444397
590.000000
570.555542
562.222229
564.444397
578.333313
545.555542
546.111084
544.444397
563.888855
554.444397
567.777771
533.333313
570.000000
533.333313
585.000000
568.333313
560.555542
577.222229
531.111084
596.111084
578.888855
594.444397
585.000000
560.555542
573.333313
588.888855
567.222229
578.888855
596.666626
563.333313
593.333313
590.555542
572.222229
550.000000
597.222229
568.888855
585.000000
580.555542
572.222229
582.222229
582.222229
567.222229
582.777771
557.222229
566.111084
582.222229
561.666626
580.000000
567.222229
577.222229
596.666626
556.666626
567.222229
591.111084
576.111084
598.333313
627.777771
608.888855
598.888855
594.444397
558.888855
608.333313
561.111084
566.111084
596.666626
595.555542
582.222229
611.666626
564.444397
598.888855
592.777771
574.444397
591.111084
612.222168
571.111084
572.222229
560.555542
617.222168
578.333313
598.888855
562.777771
615.555542
563.888855
614.444397
548.333313
576.111084
580.555542
580.000000
618.333313
575.555542
588.888855
585.555542
585.000000
607.222168
595.555542
641.666626
624.444397
612.777771
584.444397
592.777771
592.222229
630.555542
625.000000
596.666626
573.888855
566.666626
569.444397
590.000000
586.111084
597.222229
571.111084
548.333313
570.555542
568.333313
546.666626
562.222229
537.222229
563.888855
543.333313
586.111084
594.444397
584.444397
579.444397
567.777771
581.111084
562.777771
613.333313
585.555542
576.666626
576.666626
570.555542
601.666626
553.333313
579.444397
565.000000
584.444397
557.777771
528.888855
573.333313
546.111084
569.444397
575.555542
596.666626
581.111084
564.444397
603.333313
586.111084
559.444397
562.777771
552.222229
600.000000
549.444397
577.777771
582.222229
564.444397
595.555542
591.111084
592.222229
555.000000
626.111084
565.555542
603.888855
574.444397
562.222229
586.111084
583.888855
581.666626
568.888855
578.333313
596.666626
615.555542
590.555542
559.444397
552.777771
531.666626
608.333313
565.000000
610.555542
590.000000
581.111084
580.555542
592.777771
576.111084
586.666626
571.111084
568.333313
575.000000
580.000000
570.000000
587.222229
582.777771
563.888855
556.111084
567.777771
575.000000
593.333313
584.444397
632.222168
607.777771
587.222229
567.777771
606.666626
639.444397
585.000000
566.111084
558.333313
600.000000
586.666626
559.444397
597.777771
591.666626
608.333313
591.111084
596.111084
591.111084
575.555542
579.444397
592.777771
584.444397
578.888855
594.444397
601.666626
585.000000
580.000000
525.000000
621.111084
568.333313
592.777771
568.333313
541.111084
591.666626
573.888855
594.444397
602.222168
590.000000
578.333313
627.777771
608.888855
537.222229
590.555542
585.000000
574.444397
640.555542
614.444397
625.555542
605.000000
610.555542
565.555542
578.333313
578.888855
582.777771
603.888855
609.444397
602.777771
576.666626
587.222229
564.444397
586.111084
617.222168
582.222229
588.888855
581.666626
623.333313
585.555542
582.777771
611.666626
607.222168
552.777771
575.555542
610.000000
615.555542
624.444397
615.000000
602.222168
612.777771
625.555542
609.444397
586.111084
622.777771
587.777771
608.333313
634.444397
571.666626
617.222168
562.777771
591.111084
607.777771
572.222229
598.333313
623.888855
577.777771
622.222168
635.000000
611.111084
578.333313
591.666626
596.111084
622.777771
589.444397
588.333313
604.444397
611.111084
595.555542
566.666626
627.222168
609.444397
602.777771
577.222229
558.888855
602.222168
636.666626
647.222168
614.444397
581.666626
581.111084
596.111084
591.666626
606.666626
610.555542
608.888855
630.555542
569.444397
636.666626
612.222168
624.444397
611.111084
619.444397
647.222168
634.444397
631.111084
603.888855
629.444397
665.000000
619.444397
606.111084
613.888855
629.444397
567.222229
590.555542
600.000000
618.888855
602.777771
597.777771
599.444397
604.444397
631.111084
598.333313
582.222229
626.666626
607.777771
651.666626
604.444397
638.888855
598.888855
601.666626
645.555542
630.555542
620.000000
604.444397
593.333313
624.444397
607.777771
626.111084
623.333313
623.888855
597.777771
623.333313
583.333313
598.888855
607.222168
623.888855
620.555542
600.555542
590.000000
630.555542
621.666626
647.222168
634.444397
623.888855
618.888855
611.666626
605.000000
640.555542
636.666626
600.555542
598.888855
588.333313
599.444397
621.666626
655.000000
613.333313
611.666626
647.222168
602.777771
639.444397
657.222168
638.333313
623.333313
641.111084
595.000000
639.444397
595.555542
647.777771
619.444397
642.777771
618.888855
599.444397
615.000000
589.444397
635.555542
622.777771
626.666626
614.444397
641.111084
628.888855
648.888855
618.888855
649.444397
640.000000
626.666626
642.777771
623.333313
618.888855
645.000000
633.333313
623.888855
656.111084
617.777771
663.333313
642.777771
614.444397
653.888855
613.888855
612.777771
617.777771
594.444397
621.111084
604.444397
593.888855
606.666626
646.111084
645.555542
624.444397
653.888855
594.444397
645.555542
633.333313
652.777771
588.333313
618.333313
651.111084
615.555542
655.000000
632.222168
633.888855
631.111084
647.777771
636.111084
664.444397
642.222168
627.222168
663.888855
662.777771
606.111084
632.222168
638.333313
615.555542
617.222168
614.444397
626.666626
655.000000
654.444397
626.666626
637.222168
695.000000
628.333313
607.777771
658.333313
616.666626
670.000000
622.222168
636.666626
645.000000
637.222168
602.222168
654.444397
637.777771
635.000000
635.000000
653.888855
631.666626
671.111084
637.777771
655.555542
630.555542
632.777771
606.111084
605.555542
626.666626
616.666626
653.888855
626.111084
651.666626
626.666626
670.000000
667.777771
628.333313
668.333313
620.000000
641.666626
630.000000
685.555542
644.444397
677.777771
619.444397
672.777771
651.111084
653.888855
604.444397
649.444397
649.444397
628.888855
614.444397
661.666626
636.111084
661.666626
605.555542
640.555542
635.555542
652.777771
656.111084
647.222168
638.888855
608.888855
607.222168
617.222168
620.555542
632.777771
629.444397
665.000000
663.888855
651.111084
665.555542
663.888855
636.111084
643.333313
657.777771
661.666626
644.444397
656.111084
633.333313
659.444397
653.333313
644.444397
633.333313
646.666626
632.222168
642.222168
607.222168
689.444397
648.888855
663.333313
617.222168
681.666626
688.888855
618.333313
646.111084
630.555542
617.222168
638.888855
668.888855
631.111084
680.000000
654.444397
661.666626
642.777771
691.111084
650.555542
679.444397
632.222168
642.777771
673.333313
652.777771
647.222168
624.444397
688.333313
630.555542
645.555542
661.666626
656.666626
631.111084
648.888855
693.333313
663.333313
668.888855
701.111084
676.666626
617.777771
665.000000
670.555542
632.222168
677.777771
652.222168
643.888855
665.000000
659.444397
665.555542
652.777771
664.444397
683.333313
677.222168
696.666626
648.333313
636.111084
670.000000
665.000000
675.000000
656.666626
674.444397
663.888855
675.555542
675.555542
626.111084
661.666626
634.444397
616.666626
675.555542
693.333313
706.111084
637.222168
652.222168
648.333313
644.444397
656.666626
669.444397
661.111084
677.222168
647.222168
689.444397
671.666626
680.555542
692.222168
682.777771
709.444397
670.555542
667.777771
669.444397
690.555542
657.222168
626.666626
617.777771
652.777771
661.111084
652.222168
705.000000
711.111084
670.000000
663.333313
700.555542
669.444397
664.444397
711.111084
653.333313
667.777771
688.333313
669.444397
683.888855
641.666626
636.111084
634.444397
655.000000
667.777771
703.888855
662.222168
651.666626
708.333313
634.444397
675.555542
645.555542
716.111084
703.333313
685.555542
689.444397
701.666626
712.777771
683.333313
700.555542
693.888855
705.000000
720.000000
699.444397
684.444397
687.777771
705.000000
665.555542
732.777771
658.888855
676.666626
695.555542
686.666626
697.777771
696.666626
700.000000
698.888855
647.777771
701.111084
670.555542
691.666626
703.888855
698.888855
708.333313
672.222168
706.666626
731.666626
690.000000
668.333313
698.333313
702.777771
702.777771
712.222168
705.555542
665.000000
681.111084
661.111084
712.777771
717.222168
727.777771
778.333313
879.444397
877.222168
834.999939
753.333313
691.666626
643.888855
688.888855
653.333313
683.888855
667.777771
658.888855
673.333313
662.777771
657.222168
697.777771
718.333313
688.888855
692.222168
691.111084
660.000000
678.888855
703.333313
719.444397
658.333313
679.444397
686.666626
685.555542
663.888855
664.444397
700.555542
687.777771
697.777771
672.777771
695.000000
692.222168
689.444397
692.222168
673.333313
700.000000
633.888855
664.444397
685.555542
698.888855
651.111084
685.000000
668.888855
717.222168
687.222168
691.111084
651.666626
695.555542
651.666626
678.888855
704.444397
673.888855
701.666626
658.888855
691.111084
663.333313
655.555542
646.666626
693.888855
691.111084
708.888855
653.888855
732.777771
652.777771
672.777771
677.777771
653.333313
669.444397
636.111084
667.222168
686.666626
686.666626
660.555542
680.000000
692.777771
695.000000
712.222168
681.111084
677.777771
675.555542
672.777771
685.555542
697.777771
678.333313
660.555542
642.777771
680.000000
644.444397
676.666626
716.666626
708.888855
673.333313
741.111084
681.111084
707.222168
699.444397
708.888855
707.777771
712.222168
701.111084
692.222168
646.111084
687.777771
684.444397
674.444397
768.333313
675.555542
710.000000
692.222168
711.111084
676.666626
711.666626
690.555542
682.777771
698.888855
693.888855
693.333313
681.666626
713.333313
697.777771
700.555542
700.000000
754.444397
701.666626
711.111084
722.222168
691.666626
685.000000
681.666626
686.666626
687.222168
725.555542
693.888855
698.888855
712.777771
716.666626
696.666626
731.111084
710.000000
699.444397
704.444397
709.444397
722.222168
708.333313
724.444397
718.333313
735.555542
673.333313
667.222168
708.888855
703.888855
721.111084
725.555542
707.222168
720.000000
682.222168
705.000000
708.888855
712.777771
757.777771
751.666626
717.777771
717.222168
685.000000
724.444397
717.777771
723.333313
756.666626
678.888855
679.444397
721.666626
690.555542
742.222168
717.777771
708.333313
725.555542
731.666626
707.222168
711.111084
707.777771
650.555542
728.888855
723.333313
694.444397
724.444397
722.222168
708.333313
746.111084
710.555542
693.888855
754.444397
721.666626
738.888855
750.555542
741.111084
735.555542
738.333313
727.777771
703.333313
748.888855
735.000000
709.444397
728.888855
736.111084
753.888855
701.666626
758.333313
746.666626
733.888855
735.555542
727.222168
703.333313
723.333313
700.000000
772.222168
721.111084
671.111084
760.000000
721.666626
744.444397
748.333313
732.777771
734.444397
712.777771
715.000000
741.666626
710.000000
703.888855
683.888855
725.555542
713.888855
693.888855
711.666626
726.111084
726.111084
700.000000
740.555542
710.000000
693.333313
736.111084
701.111084
760.555542
691.111084
718.333313
717.222168
716.111084
729.444397
706.111084
721.111084
707.777771
709.444397
690.000000
690.000000
725.555542
709.444397
715.000000
736.666626
680.555542
737.222168
749.444397
703.333313
676.111084
725.555542
700.555542
701.111084
723.888855
728.333313
692.777771
747.777771
705.000000
740.555542
751.666626
682.777771
747.777771
733.333313
680.000000
752.222168
738.333313
697.222168
769.999939
725.555542
731.666626
698.333313
714.444397
703.333313
726.666626
727.222168
720.000000
753.888855
691.666626
736.666626
672.222168
716.111084
741.111084
705.000000
725.555542
759.444397
712.222168
693.888855
694.444397
695.000000
662.777771
709.444397
715.000000
682.222168
706.111084
718.333313
750.555542
752.222168
723.333313
756.111084
706.666626
720.555542
762.777771
732.222168
701.111084
755.555542
708.888855
761.111084
745.000000
718.333313
715.000000
732.777771
709.444397
739.444397
758.888855
717.777771
733.333313
765.000000
731.666626
772.777771
721.111084
753.333313
695.000000
727.777771
737.777771
730.000000
712.777771
756.111084
706.111084
705.555542
745.000000
723.888855
748.333313
732.777771
760.555542
717.222168
740.555542
745.555542
711.111084
771.666626
721.666626
743.888855
755.555542
728.888855
695.000000
725.000000
712.777771
700.555542
710.555542
730.555542
701.666626
742.777771
744.444397
756.111084
721.111084
721.111084
771.111084
738.333313
769.444397
740.555542
755.000000
743.333313
774.444397
755.000000
738.333313
708.888855
776.111084
749.444397
753.333313
718.888855
717.777771
695.555542
737.222168
770.555542
731.666626
724.444397
723.333313
708.888855
712.777771
753.888855
734.444397
732.777771
745.000000
731.111084
731.666626
721.666626
736.666626
697.777771
749.444397
739.444397
726.111084
742.777771
755.000000
753.333313
713.888855
708.888855
732.222168
746.111084
740.000000
724.444397
769.444397
711.111084
758.333313
711.666626
726.666626
746.666626
735.000000
764.444397
760.000000
698.333313
762.222168
708.333313
787.222168
749.444397
747.222168
761.111084
798.888855
727.222168
777.777771
720.555542
754.444397
733.333313
755.555542
767.777771
720.000000
742.222168
726.666626
738.333313
766.666626
745.555542
729.444397
764.444397
776.111084
789.999939
771.111084
760.000000
773.333313
760.000000
766.111084
766.666626
762.777771
712.222168
738.333313
731.111084
742.222168
754.444397
798.333313
767.222168
746.666626
763.333313
793.888855
761.111084
785.555542
763.333313
730.000000
730.555542
776.111084
783.888855
727.777771
743.333313
813.888855
760.555542
728.888855
724.444397
774.444397
796.666626
750.555542
814.999939
747.222168
726.111084
749.444397
778.333313
730.000000
764.444397
712.777771
723.888855
746.111084
724.444397
767.777771
734.444397
753.333313
795.555542
793.333313
746.111084
806.666626
763.888855
786.111084
810.555542
724.444397
741.111084
796.666626
812.222168
762.777771
752.777771
794.444397
765.000000
802.777771
757.777771
777.222168
778.888855
751.666626
777.222168
781.111084
758.888855
767.777771
692.777771
733.888855
720.555542
763.333313
745.000000
752.222168
754.444397
738.333313
768.333313
785.555542
791.111084
765.555542
780.555542
752.777771
768.888855
769.999939
767.222168
741.666626
784.999939
769.999939
802.777771
764.444397
797.777771
789.444397
725.555542
760.555542
793.888855
806.666626
760.000000
770.555542
764.444397
792.222168
782.222168
817.777771
764.444397
759.444397
777.777771
789.444397
730.555542
739.444397
766.111084
781.666626
737.777771
767.777771
743.888855
800.555542
759.444397
785.555542
760.000000
767.222168
765.000000
831.666626
743.333313
765.555542
773.333313
812.222168
777.222168
807.777771
789.999939
776.666626
778.888855
794.444397
768.888855
789.999939
733.888855
745.555542
754.444397
760.555542
801.111084
805.555542
794.444397
771.111084
776.111084
794.444397
771.666626
766.111084
792.777771
800.555542
790.555542
761.666626
789.444397
767.777771
791.111084
797.222168
754.444397
811.111084
785.555542
773.333313
770.555542
772.777771
762.777771
791.111084
783.888855
711.111084
763.888855
746.111084
775.555542
774.444397
811.111084
816.666626
777.777771
803.333313
753.888855
774.444397
779.444397
787.222168
784.444397
819.444397
786.111084
800.555542
803.333313
790.555542
800.555542
786.666626
774.999939
798.333313
792.777771
786.666626
800.555542
794.999939
762.222168
758.333313
836.666626
767.222168
790.555542
796.666626
784.444397
802.777771
750.555542
794.444397
808.333313
836.111084
805.555542
837.222168
771.666626
777.777771
840.555542
816.666626
755.555542
805.555542
819.444397
809.444397
766.111084
757.777771
757.777771
780.555542
763.888855
790.555542
785.555542
836.111084
765.000000
783.888855
793.333313
811.666626
796.666626
812.777771
782.777771
798.333313
832.222168
802.222168
760.555542
777.222168
762.777771
792.777771
755.000000
813.333313
789.444397
786.666626
784.999939
783.333313
807.777771
789.444397
797.777771
781.666626
794.444397
768.888855
812.777771
827.777771
789.999939
780.555542
801.111084
798.333313
789.444397
816.666626
769.444397
784.444397
784.999939
817.777771
817.777771
769.444397
786.666626
781.666626
799.999939
790.555542
829.999939
776.666626
833.888855
809.999939
780.555542
802.222168
771.666626
784.999939
829.444397
783.333313
735.555542
783.888855
797.222168
755.000000
771.111084
752.222168
799.999939
802.222168
803.888855
807.222168
831.111084
814.444397
828.888855
852.222168
818.333313
788.888855
791.111084
801.666626
831.666626
839.444397
804.444397
789.444397
844.999939
787.222168
828.333313
785.555542
797.222168
854.444397
805.555542
829.999939
819.999939
811.666626
819.444397
787.777771
842.222168
802.777771
840.555542
816.111084
805.555542
818.888855
832.222168
848.333313
779.444397
798.888855
824.444397
802.222168
806.666626
792.222168
769.999939
804.999939
818.888855
813.333313
790.555542
847.222168
802.777771
850.555542
810.555542
792.222168
787.222168
790.555542
867.777771
832.777771
821.666626
801.111084
879.444397
851.666626
800.555542
824.999939
841.666626
794.999939
788.888855
832.222168
814.999939
808.888855
802.222168
799.999939
842.222168
849.999939
843.333313
794.999939
833.333313
834.999939
783.888855
877.777771
833.888855
848.333313
859.999939
857.777771
840.555542
842.777771
828.333313
773.888855
851.666626
839.444397
852.222168
853.333313
862.222168
797.222168
813.333313
874.999939
802.777771
826.666626
852.777771
831.666626
814.444397
851.666626
888.888855
811.666626
848.333313
823.888855
797.777771
843.333313
831.666626
811.666626
820.555542
837.777771
824.444397
849.444397
813.888855
849.444397
806.111084
827.777771
843.333313
820.555542
840.555542
833.888855
873.888855
807.222168
837.777771
858.888855
829.999939
841.111084
842.222168
833.888855
796.111084
836.666626
831.111084
837.222168
862.777771
801.666626
783.333313
778.888855
848.888855
846.111084
817.222168
794.444397
783.333313
826.111084
796.666626
807.222168
804.999939
799.999939
817.777771
834.999939
828.888855
801.111084
803.888855
867.222168
817.222168
822.222168
778.888855
804.444397
833.888855
824.999939
832.777771
831.111084
813.333313
817.777771
831.666626
826.666626
860.555542
781.111084
792.222168
834.444397
836.111084
861.666626
810.555542
868.333313
839.999939
844.999939
838.333313
818.333313
857.777771
816.111084
842.222168
823.333313
824.444397
866.111084
884.444397
807.777771
848.333313
883.333313
849.444397
791.666626
799.444397
844.999939
836.111084
804.999939
803.333313
870.555542
786.666626
878.888855
765.555542
795.555542
796.111084
818.333313
827.222168
823.888855
843.333313
820.555542
834.999939
842.222168
788.333313
793.333313
849.999939
806.666626
824.999939
847.222168
812.222168
779.999939
824.444397
875.555542
816.111084
834.444397
832.222168
846.111084
839.444397
830.555542
787.222168
791.111084
813.888855
833.333313
808.888855
835.555542
829.444397
833.888855
816.111084
836.666626
809.444397
874.444397
811.666626
852.222168
841.666626
847.777771
827.222168
844.999939
804.999939
858.333313
805.555542
798.888855
813.333313
780.555542
789.999939
802.222168
824.999939
827.222168
823.333313
795.555542
769.444397
781.666626
803.888855
802.777771
792.777771
868.888855
816.666626
796.111084
873.333313
813.333313
800.555542
785.555542
783.888855
833.333313
820.555542
786.666626
782.777771
771.111084
736.666626
692.777771
626.666626
648.888855
611.666626
627.222168
556.666626
601.111084
593.888855
529.444397
558.333313
580.000000
592.222229
559.444397
591.111084
553.888855
553.888855
530.000000
530.000000
501.111084
543.333313
538.888855
582.222229
574.444397
557.222229
528.333313
543.888855
567.222229
542.777771
536.666626
527.777771
520.000000
540.000000
529.444397
554.444397
535.000000
542.222229
523.333313
549.444397
548.333313
570.000000
536.111084
562.222229
571.666626
570.000000
528.888855
517.222229
542.777771
555.555542
527.222229
535.555542
535.555542
528.888855
531.111084
523.333313
541.666626
506.666656
528.333313
538.888855
525.000000
528.888855
531.666626
545.000000
526.111084
554.444397
497.222198
528.333313
522.222229
526.111084
535.000000
560.555542
566.666626
538.888855
552.222229
526.111084
530.000000
498.888855
537.777771
522.777771
546.666626
555.000000
542.777771
529.444397
537.777771
571.111084
516.666626
525.000000
573.333313
551.666626
575.555542
573.333313
544.444397
537.777771
531.666626
566.111084
514.444397
525.555542
535.000000
530.000000
504.999969
515.000000
526.666626
497.222198
521.111084
523.333313
513.333313
476.666656
480.555542
548.888855
524.444397
522.222229
526.666626
544.444397
505.555542
504.444427
502.222198
525.555542
522.222229
535.000000
556.111084
578.888855
560.000000
526.666626
514.444397
444.444427
433.888885
447.777771
475.555542
434.444427
435.555542
437.777771
440.555542
487.222198
553.333313
610.555542
578.333313
404.999969
315.555542
265.000000
243.888885
224.999985
243.333328
236.111099
230.555542
252.222214
237.777771
242.222214
231.111099
228.333328
247.777771
255.555542
225.555542
247.777771
226.111099
233.888885
235.555542
229.999985
209.444443
234.444443
221.111099
262.777771
261.111115
247.777771
248.888885
221.111099
227.777771
232.777771
251.666656
215.555542
256.666656
231.111099
226.111099
247.777771
236.666656
216.666656
234.999985
251.111099
243.888885
244.999985
252.777771
233.333328
242.222214
239.444427
216.111099
262.222198
251.111099
257.777771
249.999985
243.333328
235.555542
242.777771
231.111099
247.222214
245.555542
236.111099
232.222214
264.444427
239.999985
232.222214
243.888885
254.444427
257.222198
238.888885
237.777771
231.666656
257.222198
243.888885
239.999985
242.777771
228.333328
249.999985
237.777771
224.999985
265.000000
263.333313
233.888885
253.888885
226.666656
229.444443
254.999985
238.333328
236.111099
226.111099
216.666656
246.111099
226.666656
228.888885
236.111099
238.888885
282.222198
259.444427
234.999985
270.555542
270.555542
239.999985
235.555542
257.222198
251.666656
253.333328
251.666656
255.555542
261.666656
227.222214
267.777771
268.888885
239.444427
248.333328
236.666656
239.444427
253.888885
237.777771
274.444427
238.333328
262.222198
224.444443
262.777771
259.444427
249.444427
227.777771
259.444427
243.888885
225.555542
233.888885
241.111099
233.333328
252.222214
233.333328
213.888885
234.444443
240.555542
217.777771
224.999985
231.111099
249.444427
254.444427
232.222214
250.555542
227.222214
231.666656
233.333328
224.999985
227.222214
226.666656
226.111099
242.777771
234.999985
242.222214
247.222214
241.111099
251.666656
257.222198
258.888885
260.555542
236.666656
232.777771
237.777771
231.111099
238.888885
211.666656
224.999985
203.888885
224.444443
208.333328
183.333328
194.444443
167.777771
186.111099
176.666656
177.777771
190.000000
219.444443
276.111115
387.777771
429.444427
530.000000
562.777771
353.888885
180.555542
137.777771
129.444443
129.444443
137.777771
153.333328
128.888885
154.444443
103.333328
107.777771
136.666656
126.666664
126.666664
123.333328
133.333328
124.444443
135.555557
116.111107
112.777771
126.666664
130.000000
123.333328
130.555557
143.888885
118.888885
135.555557
121.666664
131.666656
118.333328
126.111107
116.111107
122.222214
120.555550
128.888885
136.111099
138.333328
115.555550
135.000000
122.777771
116.111107
121.111107
136.666656
126.666664
111.111107
107.777771
108.888885
123.333328
121.666664
123.888885
123.333328
122.777771
118.888885
112.222221
106.111107
141.111099
123.333328
122.222214
126.111107
143.333328
109.999992
125.555550
144.444443
131.666656
143.888885
133.333328
124.999992
122.222214
130.000000
118.888885
132.777771
120.555550
105.555550
128.333328
130.000000
137.222214
129.444443
130.000000
121.666664
138.888885
118.888885
137.777771
125.555550
146.111099
128.888885
127.777771
130.000000
128.333328
120.555550
137.222214
135.000000
113.888885
141.111099
145.555557
141.666656
146.666656
134.444443
160.000000
126.111107
146.666656
131.666656
127.777771
137.777771
141.666656
144.444443
159.444443
158.333328
134.444443
162.777771
145.555557
144.444443
146.111099
152.222214
124.999992
157.777771
142.777771
123.888885
146.666656
156.666656
166.111099
133.333328
164.444443
151.111099
150.000000
140.000000
157.777771
133.333328
128.333328
121.666664
118.333328
106.666664
134.444443
133.333328
124.999992
135.000000
143.888885
140.000000
113.333328
140.000000
166.111099
134.444443
138.888885
132.777771
125.555550
138.333328
121.666664
130.000000
132.777771
143.333328
146.111099
147.222214
118.888885
126.111107
121.666664
138.333328
118.888885
138.333328
127.777771
143.333328
122.222214
138.888885
124.999992
114.999992
153.888885
146.666656
135.555557
145.000000
143.888885
146.111099
119.999992
138.888885
136.111099
133.333328
138.888885
138.333328
146.666656
159.444443
138.888885
145.000000
142.222214
143.333328
146.666656
143.888885
157.777771
166.666656
147.777771
146.111099
136.666656
151.111099
144.444443
172.777771
155.555542
160.000000
156.666656
163.333328
173.888885
160.555542
169.444443
181.111099
149.444443
153.333328
153.333328
160.000000
192.222214
183.333328
172.777771
156.666656
132.222214
183.333328
167.222214
173.888885
176.666656
172.222214
176.111099
167.777771
182.777771
190.000000
164.444443
192.222214
175.555542
176.666656
170.000000
190.000000
180.555542
182.222214
201.666656
172.777771
175.555542
134.444443
132.222214
153.888885
153.888885
147.222214
141.666656
144.444443
143.333328
133.333328
152.777771
144.444443
151.111099
148.888885
181.666656
205.555542
285.000000
394.999969
322.222198
166.111099
114.999992
103.333328
116.111107
111.111107
116.111107
113.333328
108.888885
110.555550
86.111107
123.333328
103.888885
129.444443
148.333328
111.666664
128.888885
112.222221
115.555550
126.666664
116.666664
142.777771
137.777771
130.000000
131.111099
132.777771
111.666664
126.111107
98.333328
130.555557
103.333328
132.222214
133.333328
104.444443
142.777771
141.111099
150.555542
102.777771
132.222214
117.777771
117.777771
135.555557
141.111099
118.333328
96.666664
113.888885
106.666664
100.555550
112.222221
111.666664
113.333328
109.444443
120.555550
111.666664
130.555557
107.777771
127.222214
108.888885
94.444443
106.666664
117.222221
113.888885
106.111107
90.555550
102.222221
106.666664
111.666664
126.666664
113.333328
113.333328
97.222221
111.111107
114.444443
119.999992
114.444443
85.000000
106.666664
109.444443
113.888885
118.888885
117.222221
101.111107
130.555557
124.999992
121.666664
106.666664
116.666664
128.333328
98.333328
127.777771
104.999992
121.666664
106.111107
117.777771
107.777771
135.555557
116.666664
122.222214
114.444443
101.111107
130.000000
103.888885
120.555550
108.333328
118.888885
119.444443
96.111107
119.999992
115.555550
117.777771
96.111107
93.888885
98.888885
119.999992
111.666664
113.333328
97.222221
116.111107
101.666664
96.111107
106.111107
103.333328
112.777771
117.777771
98.888885
104.999992
102.777771
104.999992
119.999992
117.222221
119.999992
113.333328
113.888885
103.333328
124.999992
107.777771
95.000000
102.222221
113.888885
105.555550
102.222221
114.999992
102.222221
107.222221
127.777771
114.444443
109.444443
102.222221
111.111107
118.888885
107.777771
106.666664
112.222221
119.999992
114.444443
116.666664
129.444443
105.555550
133.888885
117.222221
128.888885
111.111107
116.111107
113.333328
107.222221
113.888885
112.222221
105.555550
123.888885
97.777771
96.111107
111.111107
107.777771
99.444443
97.222221
93.333328
95.555550
81.666664
88.888885
111.111107
104.444443
107.777771
111.111107
108.333328
89.444443
119.444443
120.555550
95.555550
85.555550
107.222221
140.000000
130.000000
98.888885
77.777771
77.777771
59.999996
75.000000
55.555553
64.444443
66.666664
66.111107
70.555550
63.888885
56.111111
61.111107
65.000000
62.222221
71.111107
48.333332
59.999996
81.111107
60.555553
67.777779
67.777779
58.888885
54.444443
59.444443
68.333328
74.444443
53.333332
66.111107
65.555550
67.777779
70.000000
67.222221
73.888885
78.888885
116.111107
135.555557
100.555550
82.777771
43.333332
36.111111
23.888887
37.777775
22.777777
27.222221
29.444443
32.222221
24.999998
19.444443
18.333332
14.444444
14.999999
15.555555
13.333333
12.222221
11.111111
20.555555
19.444443
24.444443
21.111111
18.333332
19.444443
18.333332
16.666666
17.222221
27.777777
24.999998
27.222221
29.999998
28.333332
30.555553
14.999999
14.999999
17.777777
8.888888
15.555555
20.555555
14.444444
15.555555
21.666666
24.999998
12.222221
12.222221
9.444444
16.666666
25.555555
22.222221
17.222221
17.777777
12.777778
10.555555
6.666667
end of experiment
